Mammal: rabbit
Fs: 1000
Integration: ECG

208
505
809
1114
1416
1717
2022
2326
2625
2933
3243
3549
3855
4168
4475
4779
5087
5393
5695
5996
6300
6603
6904
7211
7520
7826
8131
8436
8737
9034
9323
9621
9916
10208
10507
10807
11115
11418
11720
12023
12323
12617
12906
13198
13488
13778
14069
14372
14678
14980
15280
15589
15895
16198
16502
16809
17119
17423
17731
18044
18354
18662
18976
19295
19612
19927
20246
20564
20879
21193
21509
21824
22132
22439
22746
23065
23388
23699
23996
24279
24560
24845
25123
25398
25676
25943
26206
26465
26715
26960
27201
27441
27682
27921
28164
28412
28661
28913
29220
29651
29996
30312
30614
30896
31179
31452
31720
31979
32234
32481
32722
32958
33192
33422
33651
33875
34100
34321
34543
34763
34982
35201
35419
35637
35853
36070
36283
36499
36714
36929
37147
37368
37592
37819
38049
38286
38526
38772
39024
39281
39539
39798
40061
40326
40594
40865
41142
41422
41699
41981
42265
42543
42821
43100
43381
43660
43944
44228
44520
44815
45112
45407
45699
45989
46279
46561
46842
47124
47401
47677
47954
48235
48513
48790
49072
49356
49637
49919
50203
50490
50782
51070
51365
51667
51960
52250
52549
52838
53125
53414
53709
53997
54282
54569
54855
55140
55418
55702
55996
56290
56585
56886
57192
57494
57795
58102
58405
58701
58988
59273
59559
59842
60129
60423
60732
61045
61358
61665
61973
62264
62550
62823
63097
63367
63636
63905
64179
64456
64738
65020
65303
65579
65860
66133
66403
66672
66934
67195
67454
67714
67976
68245
68520
68801
69089
69380
69675
69968
70257
70547
70833
71116
71399
71679
71957
72241
72525
72811
73094
73379
73658
73937
74215
74490
74763
75036
75312
75586
75859
76136
76415
76694
76979
77264
77551
77834
78111
78384
78659
78930
79199
79470
79744
80022
80307
80590
80875
81161
81445
81725
82005
82286
82566
82845
83126
83410
83692
83972
84255
84542
84824
85106
85396
85679
85964
86242
86524
86801
87076
87351
87626
87901
88178
88452
88728
89001
89272
89540
89807
90075
90344
90614
90883
91157
91432
91706
91978
92253
92529
92803
93080
93359
93638
93918
94193
94469
94749
95026
95302
95578
95854
96136
96417
96702
96992
97280
97570
97854
98141
98423
98709
98992
99279
99560
99855
100144
100441
100736
101032
101328
101626
101925
102225
102527
102828
103131
103434
103736
104039
104340
104638
104929
105215
105499
105784
106069
106351
106636
106924
107209
107489
107769
108047
108319
108591
108863
109135
109405
109674
109945
110217
110488
110759
111030
111302
111575
111847
112122
112406
112691
112978
113269
113570
113871
114170
114467
114769
115068
115364
115663
115955
116241
116531
116820
117112
117412
117715
118015
118310
118610
118908
119205
119500
119798
120095
120386
120680
120981
121275
121562
121855
122145
122431
122717
123006
123292
123575
123862
124151
124441
124732
125018
125305
125596
125882
126170
126454
126746
127039
127327
127617
127915
128210
128503
128794
129089
129379
129668
129963
130265
130567
130861
131162
131465
131763
132063
132364
132663
132963
133265
133564
133860
134161
134463
134762
135059
135359
135657
135948
136232
136524
136819
137109
137401
137699
138004
138301
138593
138891
139191
139485
139775
140067
140363
140657
140950
141248
141550
141846
142142
142436
142732
143025
143318
143610
143911
144210
144507
144801
145101
145398
145692
145986
146285
146582
146877
147173
147473
147768
148059
148355
148654
148953
149251
149554
149857
150159
150462
150767
151069
151366
151668
151970
152270
152566
152867
153167
153465
153761
154064
154367
154669
154967
155271
155572
155865
156150
156442
156730
157016
157302
157591
157883
158169
158449
158727
159007
159289
159572
159848
160128
160418
160712
161007
161303
161607
161906
162202
162498
162794
163091
163381
163667
163956
164254
164545
164839
165134
165439
165740
166034
166327
166614
166896
167172
167444
167718
167992
168263
168540
168813
169086
169358
169627
169894
170160
170429
170699
170967
171234
171501
171764
172026
172286
172543
172805
173066
173326
173588
173852
174118
174393
174669
174947
175223
175499
175771
176048
176337
176620
176905
177196
177495
177803
178109
178415
178717
179022
179327
179628
179922
180204
180481
180775
181065
181358
181644
181945
182248
182556
182863
183165
183474
183783
184088
184389
184685
184974
185263
185555
185862
186180
186492
186806
187111
187418
187730
188040
188347
188655
188962
189272
189576
189884
190186
190486
190781
191071
191365
191652
191926
192204
192482
192764
193056
193371
193680
193986
194291
194605
194916
195219
195527
195833
196132
196432
196736
197040
197341
197638
197932
198220
198508
198800
199084
199367
199654
199942
200238
200534
200833
201134
201430
201727
202019
202302
202577
202852
203128
203404
203676
203946
204219
204501
204781
205061
205336
205611
205894
206174
206447
206723
206994
207266
207546
207824
208109
208390
208675
208969
209256
209547
209828
210111
210392
210680
210970
211283
211587
211885
212182
212478
212777
213071
213356
213668
213975
214278
214591
214903
215211
215513
215818
216124
216413
216691
216959
217230
217501
217768
218033
218304
218590
218903
219215
219522
219823
220123
220423
220705
220981
221253
221534
221839
222151
222454
222767
223075
223379
223680
223979
224283
224583
224877
225164
225445
225730
226022
226304
226588
226874
227160
227447
227735
228020
228307
228590
228875
229185
229507
229816
230116
230423
230728
231028
231317
231600
231880
232162
232442
232725
233025
233316
233604
233891
234176
234465
234753
235047
235336
235623
235918
236204
236499
236820
237128
237449
237759
238066
238365
238666
238971
239276
239577
239879
240198
240520
240845
241161
241466
241778
242095
242406
242716
243017
243313
243616
243911
244210
244497
244801
245126
245434
245742
246043
246351
246662
246975
247292
247605
247923
248242
248560
248876
249181
249495
249811
250124
250429
250726
251028
251336
251631
251921
252206
252491
252765
253034
253299
253559
253822
254086
254350
254613
254876
255145
255414
255681
255944
256207
256468
256725
256980
257234
257488
257743
257998
258255
258510
258771
259040
259315
259607
259902
260188
260472
260756
261040
261324
261610
261895
262173
262453
262746
263030
263310
263589
263862
264137
264403
264669
264935
265210
265498
265795
266088
266380
266675
266968
267251
267530
267808
268092
268372
268653
268930
269209
269506
269796
270088
270369
270647
270925
271200
271474
271748
272025
272312
272607
272914
273215
273514
273808
274102
274400
274694
274982
275260
275540
275823
276112
276404
276689
276984
277287
277597
277899
278202
278505
278814
279120
279420
279720
280025
280322
280611
280890
281171
281459
281741
282023
282324
282639
282942
283239
283544
283842
284142
284431
284711
285009
285321
285617
285913
286200
286494
286790
287077
287364
287648
287934
288235
288547
288842
289134
289419
289705
290000
290291
290581
290877
291183
291485
291783
292076
292370
292666
292971
293273
293572
293867
294165
294470
294766
295062
295352
295638
295923
296198
296466
296726
296981
297238
297493
297745
298006
298272
298569
298876
299173
299471
299772
300076
300375
300671
300965
301262
301544
301814
302079
302344
302623
302913
303218
303511
303813
304133
304462
304782
305110
305453
305773
306088
306392
306699
307014
307322
307630
307968
308277
308585
308890
309201
309516
309832
310147
310458
310773
311093
311410
311735
312049
312362
312683
312994
313315
313623
313940
314259
314571
314880
315180
315489
315797
316096
316397
316699
317000
317312
317611
317903
318188
318483
318772
319060
319341
319618
319884
320152
320430
320700
320963
321230
321490
321749
322012
322276
322547
322822
323100
323386
323667
323946
324226
324504
324782
325061
325341
325620
325905
326186
326460
326736
327006
327275
327544
327812
328090
328368
328647
328925
329206
329494
329775
330052
330341
330623
330902
331184
331467
331748
332030
332311
332592
332861
333128
333386
333638
333886
334129
334369
334607
334842
335075
335307
335536
335764
335991
336218
336443
336669
336893
337117
337341
337564
337785
338007
338228
338454
338680
338912
339141
339376
339613
339851
340091
340337
340579
340820
341060
341301
341543
341787
342031
342276
342528
342782
343038
343296
343555
343818
344083
344343
344610
344876
345146
345414
345685
345956
346229
346501
346770
347047
347323
347601
347876
348154
348430
348708
348982
349259
349532
349805
350080
350354
350627
350904
351182
351460
351736
352013
352288
352563
352834
353105
353374
353647
353921
354194
354471
354749
355025
355304
355583
355861
356141
356418
356695
356974
357249
357525
357795
358065
358338
358612
358885
359160
359434
359706
359979
360253
360528
360804
361083
361359
361640
361919
362202
362484
362768
363053
363340
363631
363917
364203
364495
364786
365078
365371
365667
365960
366247
366528
366802
367067
367327
367581
367829
368072
368312
368551
368792
369038
369285
369532
369777
370022
370265
370505
370741
370974
371205
371437
371665
371894
372123
372350
372580
372812
373046
373292
373539
373789
374039
374296
374555
374819
375087
375355
375626
375896
376161
376434
376704
376985
377265
377541
377827
378114
378406
378695
378994
379292
379588
379881
380174
380473
380772
381067
381369
381674
381979
382282
382589
382895
383200
383506
383817
384126
384430
384744
385054
385362
385669
385979
386289
386597
386908
387224
387533
387841
388151
388465
388774
389080
389387
389699
390004
390305
390608
390914
391215
391513
391810
392122
392426
392728
393032
393345
393656
393968
394278
394595
394910
395222
395540
395860
396174
396490
396813
397131
397445
397762
398082
398396
398707
399024
399340
399653
399968
400287
400601
400913
401227
401541
401851
402156
402466
402776
403083
403388
403696
404005
404309
404608
404909
405211
405505
405796
406092
406393
406700
407010
407317
407630
407942
408256
408567
408884
409195
409502
409808
410115
410415
410714
411019
411329
411634
411942
412254
412562
412871
413185
413496
413804
414116
414426
414733
415028
415330
415618
415906
416187
416470
416747
417019
417294
417565
417836
418106
418377
418650
418926
419196
419462
419725
419981
420232
420478
420720
420959
421196
421430
421665
421899
422137
422376
422621
422873
423133
423401
423672
423945
424225
424505
424784
425063
425340
425621
425898
426173
426454
426736
427031
427328
427617
427908
428201
428491
428782
429078
429371
429660
429949
430239
430526
430813
431101
431393
431683
431970
432260
432553
432839
433125
433409
433693
433971
434248
434529
434809
435093
435376
435662
435956
436245
436533
436823
437121
437416
437713
438012
438319
438624
438930
439232
439539
439846
440151
440453
440760
441065
441367
441671
441978
442282
442581
442884
443188
443492
443792
444098
444403
444707
445012
445321
445631
445935
446242
446551
446857
447158
447459
447755
448044
448328
448614
448902
449184
449463
449745
450029
450313
450595
450877
451170
451458
451751
452044
452343
452648
452954
453255
453558
453867
454169
454466
454769
455079
455386
455686
455990
456298
456599
456893
457189
457487
457775
458064
458356
458649
458936
459233
459527
459823
460117
460418
460717
461019
461322
461631
461936
462232
462534
462833
463128
463416
463703
463995
464278
464560
464846
465134
465418
465700
465985
466274
466562
466850
467142
467439
467734
468023
468312
468605
468906
469198
469494
469798
470101
470396
470695
470996
471301
471598
471897
472199
472502
472802
473116
473421
473720
474030
474339
474639
474936
475243
475544
475837
476136
476440
476734
477028
477324
477618
477907
478194
478484
478774
479062
479349
479645
479949
480257
480556
480866
481168
481465
481754
482047
482339
482628
482914
483209
483503
483797
484093
484387
484687
484977
485267
485561
485864
486160
486453
486744
487042
487332
487622
487911
488204
488493
488785
489082
489387
489699
490006
490306
490605
490901
491198
491495
491802
492110
492419
492734
493054
493371
493685
493999
494297
494589
494869
495147
495423
495702
495975
496257
496541
496825
497112
497399
497683
497967
498253
498536
498822
499106
499389
499672
499958
500249
500539
500830
501120
501403
501685
501959
502230
502497
502759
503021
503280
503539
503800
504064
504328
504596
504866
505139
505411
505687
505963
506235
506509
506782
507051
507320
507589
507857
508126
508396
508667
508937
509204
509473
509742
510010
510276
510542
510808
511072
511337
511603
511870
512135
512400
512665
512932
513197
513463
513731
513997
514262
514526
514790
515055
515318
515579
515840
516104
516369
516630
516892
517154
517416
517677
517940
518207
518476
518752
519029
519301
519573
519851
520134
520419
520704
520995
521288
521581
521873
522165
522453
522733
523017
523298
523580
523863
524155
524443
524732
525025
525328
525622
525915
526205
526495
526778
527061
527343
527624
527904
528183
528462
528744
529024
529302
529583
529865
530144
530420
530696
530978
531261
531544
531824
532104
532384
532657
532929
533203
533482
533762
534042
534320
534604
534890
535178
535461
535750
536042
536334
536625
536912
537207
537501
537793
538083
538375
538663
538949
539237
539528
539813
540098
540383
540672
540960
541242
541528
541822
542115
542405
542700
542997
543292
543583
543875
544166
544455
544746
545039
545337
545626
545912
546201
546489
546776
547057
547336
547614
547890
548167
548440
548714
548992
549271
549554
549841
550138
550437
550736
551030
551331
551632
551929
552224
552525
552816
553100
553384
553672
553961
554256
554546
554843
555135
555427
555720
556012
556299
556588
556879
557165
557453
557747
558036
558320
558609
558894
559176
559460
559746
560031
560314
560596
560880
561158
561432
561707
561981
562255
562526
562792
563062
563331
563600
563868
564139
564413
564686
564958
565231
565502
565779
566056
566331
566608
566899
567198
567495
567788
568088
568385
568679
568975
569276
569574
569869
570165
570460
570743
571021
571299
571571
571841
572113
572388
572664
572942
573225
573511
573793
574072
574355
574640
574925
575206
575494
575784
576069
576351
576635
576920
577202
577478
577755
578031
578306
578578
578852
579127
579400
579673
579947
580224
580507
580787
581067
581349
581636
581923
582208
582493
582785
583077
583370
583659
583955
584243
584534
584819
585110
585399
585691
585980
586277
586570
586867
587162
587461
587759
588054
588354
588654
588952
589249
589548
589839
590123
590411
590700
590984
591265
591553
591836
592117
592395
592676
592960
593241
593522
593803
594083
594359
594632
594904
595176
595449
595720
595993
596268
596545
596821
597098
597372
597656
597938
598219
598502
598797
599094
599392
599684
599984
600282
600580
600873
601175
601471
601764
602052
602347
602635
602923
603212
603507
603800
604088
604375
604659
604941
605218
605499
605783
606064
606342
606627
606911
607192
607469
607746
608025
608306
608582
608863
609145
609423
609698
609972
610250
610526
610804
611082
611368
611657
611940
612219
612499
612779
613059
613339
613617
613898
614183
614464
614745
615026
615308
615588
615871
616155
616445
616739
617031
617320
617608
617898
618187
618473
618757
619052
619340
619630
619916
620207
620496
620779
621065
621350
621632
621910
622188
622468
622749
623028
623310
623598
623885
624171
624457
624746
625029
625309
625591
625874
626156
626432
626709
626987
627263
627536
627812
628088
628362
628634
628905
629180
629453
629724
629995
630269
630541
630810
631081
631355
631627
631901
632173
632447
632727
633008
633292
633575
633862
634150
634439
634724
635016
635312
635603
635891
636179
636466
636749
637026
637305
637585
637865
638140
638421
638704
638984
639264
639544
639826
640105
640380
640658
640939
641217
641494
641774
642058
642338
642616
642893
643173
643455
643733
644014
644297
644580
644858
645134
645413
645691
645967
646240
646517
646798
647075
647350
647626
647902
648176
648450
648730
649018
649301
649584
649861
650143
650427
650711
650996
651282
651572
651862
652154
652442
652737
653030
653323
653614
653910
654202
654489
654779
655068
655353
655632
655911
656190
656465
656740
657018
657300
657579
657856
658136
658417
658694
658965
659239
659515
659788
660062
660335
660614
660890
661167
661441
661720
661998
662272
662545
662820
663093
663363
663630
663899
664173
664447
664722
664999
665294
665589
665878
666166
666460
666753
667046
667335
667627
667922
668211
668497
668778
669064
669346
669624
669903
670185
670463
670738
671011
671283
671558
671830
672102
672380
672657
672932
673205
673478
673749
674018
674286
674557
674829
675099
675366
675633
675904
676171
676438
676706
676975
677240
677504
677772
678039
678304
678567
678831
679093
679356
679618
679879
680144
680412
680679
680945
681214
681484
681753
682024
682291
682560
682832
683103
683372
683644
683921
684198
684473
684749
685029
685307
685586
685862
686143
686429
686713
686996
687277
687564
687846
688124
688404
688688
688974
689258
689547
689840
690130
690418
690709
691001
691290
691577
691863
692141
692414
692686
692960
693232
693505
693776
694055
694328
694600
694872
695148
695419
695691
695960
696233
696505
696774
697040
697308
697577
697843
698107
698370
698635
698900
699167
699439
699712
699994
700272
700550
700829
701111
701393
701673
701950
702228
702513
702798
703084
703367
703657
703947
704235
704521
704813
705103
705389
705676
705967
706256
706540
706827
707111
707394
707672
707951
708225
708496
708765
709036
709303
709561
709820
710077
710329
710587
710855
711131
711397
711663
711929
712195
712463
712728
712991
713252
713507
713757
714004
714244
714482
714714
714948
715180
715411
715640
715869
716095
716321
716546
716773
717000
717229
717456
717686
717917
718150
718384
718618
718852
719087
719324
719562
719805
720052
720304
720562
720825
721092
721363
721637
721914
722189
722471
722754
723036
723317
723602
723885
724165
724442
724720
724995
725275
725560
725843
726123
726408
726690
726970
727248
727531
727814
728092
728379
728667
728953
729240
729531
729823
730115
730407
730702
730992
731277
731557
731832
732109
732386
732661
732941
733219
733497
733775
734053
734326
734599
734874
735147
735419
735693
735969
736245
736519
736798
737086
737371
737655
737942
738230
738518
738809
739107
739398
739692
739984
740269
740553
740838
741120
741399
741681
741966
742257
742553
742845
743137
743434
743725
744010
744296
744577
744856
745137
745414
745690
745964
746240
746514
746784
747049
747318
747585
747852
748115
748382
748651
748923
749194
749470
749755
750038
750317
750596
750879
751157
751434
751707
751992
752273
752553
752833
753116
753404
753690
753974
754262
754552
754840
755125
755411
755699
755985
756270
756555
756841
757128
757417
757709
758000
758290
758584
758880
759173
759464
759755
760044
760323
760607
760892
761181
761467
761762
762054
762339
762625
762910
763192
763467
763744
764023
764303
764578
764855
765134
765409
765682
765957
766237
766519
766798
767081
767364
767641
767918
768193
768468
768749
769032
769321
769618
769914
770209
770501
770801
771101
771398
771691
771990
772285
772578
772870
773165
773460
773745
774032
774321
774599
774871
775148
775430
775717
776004
776305
776600
776894
777184
777478
777768
778053
778339
778633
778934
779234
779527
779821
780112
780399
780681
780967
781251
781529
781806
782085
782363
782640
782916
783194
783470
783744
784015
784290
784564
784839
785114
785387
785666
785946
786227
786506
786786
787068
787342
787618
787893
788167
788443
788726
789007
789289
789577
789865
790149
790431
790721
791007
791291
791572
791854
792131
792403
792676
792951
793225
793499
793773
794050
794323
794593
794863
795131
795395
795657
795920
796184
796449
796714
796982
797255
797533
797809
798081
798358
798638
798921
799203
799482
799769
800060
800349
800634
800922
801213
801501
801787
802068
802355
802641
802928
803216
803508
803799
804092
804383
804676
804973
805264
805557
805853
806147
806437
806732
807027
807319
807607
807893
808176
808455
808730
809009
809282
809553
809826
810102
810377
810654
810933
811214
811495
811768
812041
812314
812584
812850
813113
813378
813647
813917
814187
814491
814780
815070
815359
815649
815941
816238
816535
816834
817130
817434
817737
818042
818344
818644
818952
819256
819561
819863
820165
820467
820772
821076
821387
821697
822014
822327
822644
822960
823274
823586
823909
824224
824542
824854
825159
825474
825787
826097
826417
826737
827046
827348
827648
827936
828221
828499
828797
829353
829718
830050
830385
830723
831048
831367
831692
832012
832328
832638
832944
833247
833544
833838
834126
834427
834720
835013
835304
835608
835942
836260
836595
836926
837267
837600
837938
838271
838599
838929
839251
839566
839876
840179
840476
840767
841072
841383
841699
842009
842323
842644
842965
843282
843607
843930
844241
844542
844841
845122
845401
845668
845923
846172
846416
846662
846912
847160
847408
847656
847902
848146
848389
848629
848867
849102
849335
849566
849796
850028
850259
850492
850725
850960
851198
851440
851689
851936
852192
852453
852716
852981
853254
853525
853798
854072
854343
854615
854889
855162
855432
855706
855984
856265
856555
856847
857141
857444
857736
858030
858317
858604
858890
859171
859456
859745
860030
860311
860593
860877
861158
861450
861744
862027
862322
862603
862890
863176
863456
863740
864030
864318
864612
864911
865213
865508
865801
866092
866387
866671
866949
867226
867506
867789
868073
868355
868633
868909
869184
869460
869737
870019
870298
870577
870861
871145
871436
871732
872023
872314
872617
872918
873214
873509
873804
874094
874381
874674
874966
875253
875536
875825
876110
876393
876677
876970
877266
877566
877859
878151
878438
878713
878985
879253
879516
879778
880036
880294
880553
880812
881079
881355
881632
881918
882211
882503
882795
883091
883389
883688
883988
884297
884603
884906
885204
885507
885807
886102
886395
886691
886985
887278
887567
887861
888150
888441
888727
889019
889302
889582
889867
890154
890439
890720
891005
891283
891564
891846
892119
892399
892683
892964
893244
893525
893809
894089
894371
894658
894947
895246
895531
895811
896090
896363
896630
896893
897155
897414
897668
897922
898180
898441
898708
898972
899235
899500
899762
900025
900286
900546
900803
901066
901332
901601
901868
902134
902399
902668
902938
903208
903481
903756
904041
904329
904612
904890
905172
905456
905734
906007
906287
906570
906865
907162
907455
907748
908044
908336
908625
908907
909180
909449
909715
909982
910261
910543
910840
911137
911428
911722
912012
912293
912568
912841
913116
913387
913658
913930
914209
914500
914807
915098
915387
915679
915971
916261
916551
916839
917123
917411
917706
917990
918279
918563
918847
919137
919430
919730
920022
920314
920611
920905
921196
921484
921769
922056
922336
922614
922890
923169
923444
923712
923982
924258
924540
924839
925131
925430
925732
926034
926329
926626
926924
927219
927510
927801
928076
928352
928631
928908
929191
929476
929766
930071
930366
930666
930971
931274
931582
931887
932188
932485
932780
933081
933377
933666
933955
934255
934547
934851
935144
935445
935749
936048
936343
936643
936946
937249
937550
937845
938144
938435
938714
938996
939292
939608
939913
940216
940515
940821
941130
941434
941740
942042
942345
942647
942938
943225
943506
943788
944076
944358
944638
944915
945183
945450
945715
945979
946244
946524
946837
947141
947437
947731
948026
948318
948606
948889
949183
949470
949756
950046
950356
950656
950958
951260
951563
951871
952176
952476
952775
953077
953383
953695
954006
954318
954628
954943
955260
955577
955892
956201
956512
956821
957112
957401
957694
958008
958314
958642
958951
959273
959586
959897
960201
960490
960784
961069
961367
961672
961964
962256
962547
962833
963119
963405
963704
964003
964302
964595
964891
965201
965504
965806
966101
966396
966693
966981
967265
967542
967820
968104
968384
968667
968951
969243
969548
969845
970133
970423
970717
970997
971295
971584
971879
972169
972469
972770
973091
973398
973703
973993
974269
974539
974813
975086
975352
975615
975876
976133
976387
976637
976892
977143
977397
977655
977912
978172
978432
978698
978963
979228
979489
979751
980008
980264
980523
980784
981047
981319
981594
981866
982132
982396
982658
982915
983167
983417
983665
983914
984163
984413
984666
984919
985175
985431
985689
985949
986213
986482
986753
987020
987293
987569
987838
988109
988379
988645
988911
989177
989448
989723
990000
990283
990565
990846
991121
991391
991660
991929
992192
992452
992713
992976
993241
993504
993773
994049
994322
994591
994865
995140
995409
995683
995956
996231
996503
996778
997056
997335
997620
997917
998221
998518
998813
999107
999403
999684
999964
1000229
1000493
1000746
1000998
1001245
1001717
1001963
1002219
1002480
1002729
1002976
1003222
1003471
1003714
1003957
1004194
1004425
1004650
1004874
1005097
1005320
1005541
1005759
1005976
1006193
1006409
1006627
1006843
1007062
1007282
1007506
1007729
1007955
1008181
1008410
1008642
1008876
1009111
1009352
1009595
1009840
1010092
1010346
1010602
1010863
1011128
1011394
1011661
1011928
1012198
1012466
1012735
1013000
1013271
1013539
1013804
1014073
1014346
1014617
1014887
1015159
1015427
1015696
1015964
1016232
1016505
1016781
1017053
1017328
1017603
1017874
1018145
1018417
1018690
1018959
1019231
1019503
1019773
1020041
1020311
1020581
1020846
1021109
1021373
1021637
1021899
1022161
1022423
1022683
1022943
1023202
1023461
1023725
1023986
1024245
1024506
1024768
1025031
1025290
1025549
1025809
1026071
1026335
1026600
1026866
1027135
1027408
1027683
1027958
1028233
1028513
1028791
1029069
1029346
1029628
1029907
1030182
1030457
1030734
1031011
1031292
1031572
1031857
1032141
1032420
1032698
1032978
1033253
1033527
1033802
1034082
1034360
1034639
1034921
1035202
1035479
1035757
1036038
1036313
1036586
1036860
1037133
1037402
1037665
1037929
1038194
1038457
1038721
1038987
1039258
1039527
1039797
1040067
1040342
1040616
1040890
1041166
1041439
1041716
1041992
1042269
1042544
1042822
1043103
1043382
1043659
1043935
1044212
1044489
1044763
1045035
1045314
1045591
1045872
1046151
1046438
1046723
1047009
1047290
1047574
1047856
1048135
1048407
1048679
1048950
1049223
1049492
1049764
1050036
1050306
1050580
1050863
1051144
1051427
1051715
1052004
1052289
1052572
1052856
1053138
1053417
1053697
1053975
1054253
1054532
1054806
1055080
1055353
1055627
1055895
1056164
1056435
1056706
1056977
1057248
1057522
1057797
1058073
1058348
1058622
1058900
1059177
1059454
1059729
1060005
1060282
1060562
1060843
1061122
1061404
1061691
1061983
1062268
1062552
1062843
1063134
1063419
1063706
1063994
1064282
1064566
1064853
1065146
1065436
1065725
1066016
1066312
1066606
1066896
1067190
1067485
1067779
1068071
1068366
1068660
1068952
1069236
1069519
1069804
1070083
1070360
1070638
1070919
1071202
1071483
1071770
1072059
1072344
1072623
1072900
1073178
1073453
1073725
1073996
1074270
1074543
1074815
1075088
1075363
1075637
1075912
1076186
1076467
1076749
1077031
1077311
1077594
1077880
1078166
1078449
1078730
1079010
1079291
1079570
1079850
1080133
1080418
1080704
1080988
1081275
1081563
1081851
1082134
1082422
1082709
1082992
1083281
1083573
1083862
1084147
1084434
1084717
1085000
1085282
1085564
1085842
1086118
1086393
1086670
1086945
1087217
1087490
1087760
1088027
1088293
1088556
1088820
1089086
1089352
1089617
1089885
1090156
1090425
1090688
1090953
1091219
1091484
1091749
1092019
1092290
1092563
1092839
1093115
1093392
1093670
1093949
1094226
1094505
1094782
1095055
1095331
1095600
1095864
1096126
1096386
1096646
1096905
1097171
1097440
1097714
1097991
1098267
1098547
1098831
1099114
1099397
1099681
1099961
1100234
1100505
1100774
1101041
1101306
1101570
1101832
1102093
1102354
1102616
1102878
1103140
1103402
1103664
1103924
1104182
1104438
1104694
1104949
1105202
1105455
1105711
1105971
1106232
1106493
1106761
1107033
1107308
1107583
1107856
1108133
1108413
1108691
1108971
1109248
1109527
1109805
1110086
1110369
1110658
1110949
1111241
1111532
1111824
1112121
1112415
1112705
1112994
1113285
1113571
1113848
1114126
1114409
1114690
1114971
1115258
1115550
1115839
1116126
1116415
1116699
1116980
1117262
1117546
1117829
1118109
1118387
1118667
1118945
1119226
1119504
1119791
1120080
1120375
1120663
1120952
1121236
1121517
1121793
1122066
1122342
1122619
1122899
1123180
1123464
1123749
1124033
1124316
1124601
1124888
1125174
1125458
1125739
1126025
1126310
1126600
1126889
1127178
1127470
1127756
1128039
1128326
1128610
1128892
1129173
1129453
1129729
1130006
1130292
1130578
1130862
1131147
1131432
1131714
1131992
1132272
1132549
1132828
1133102
1133374
1133646
1133916
1134185
1134454
1134722
1134985
1135247
1135507
1135767
1136026
1136285
1136543
1136799
1137056
1137312
1137568
1137826
1138088
1138352
1138615
1138882
1139151
1139421
1139697
1139972
1140250
1140530
1140814
1141101
1141389
1141678
1141964
1142256
1142545
1142835
1143121
1143411
1143702
1143994
1144284
1144574
1144867
1145158
1145447
1145737
1146030
1146320
1146606
1146896
1147185
1147468
1147750
1148034
1148318
1148598
1148876
1149156
1149435
1149713
1149990
1150270
1150552
1150833
1151109
1151385
1151659
1151929
1152202
1152475
1152763
1153060
1153353
1153642
1153935
1154230
1154522
1154807
1155091
1155379
1155666
1155949
1156233
1156521
1156809
1157094
1157376
1157668
1157959
1158248
1158534
1158822
1159109
1159398
1159686
1159973
1160265
1160556
1160844
1161131
1161419
1161705
1161987
1162267
1162552
1162836
1163120
1163402
1163693
1163986
1164269
1164548
1164825
1165100
1165373
1165646
1165924
1166207
1166487
1166767
1167051
1167340
1167631
1167924
1168221
1168517
1168814
1169107
1169400
1169689
1169972
1170247
1170525
1170804
1171081
1171357
1171634
1171915
1172197
1172476
1172757
1173037
1173313
1173589
1173861
1174136
1174411
1174686
1174965
1175247
1175533
1175818
1176104
1176387
1176674
1176964
1177251
1177539
1177826
1178111
1178397
1178685
1178971
1179254
1179541
1179825
1180106
1180384
1180669
1180955
1181241
1181530
1181827
1182121
1182412
1182706
1183000
1183295
1183587
1183880
1184173
1184456
1184736
1185017
1185297
1185573
1185845
1186114
1186383
1186649
1186912
1187174
1187434
1187694
1187951
1188208
1188463
1188719
1188978
1189242
1189507
1189777
1190054
1190335
1190619
1190903
1191183
1191466
1191751
1192036
1192320
1192606
1192896
1193186
1193479
1193770
1194066
1194361
1194654
1194946
1195240
1195531
1195819
1196098
1196376
1196650
1196919
1197188
1197458
1197728
1197994
1198262
1198531
1198801
1199070
1199339
1199609
1199878
1200146
1200412
1200679
1200946
1201215
1201486
1201754
1202023
1202293
1202560
1202824
1203085
1203347
1203609
1203871
1204133
1204394
1204653
1204912
1205172
1205434
1205707
1205983
1206264
1206544
1206824
1207106
1207388
1207670
1207951
1208233
1208518
1208797
1209077
1209360
1209645
1209933
1210221
1210507
1210794
1211086
1211376
1211663
1211949
1212238
1212526
1212813
1213092
1213367
1213641
1213913
1214185
1214454
1214726
1214996
1215263
1215534
1215807
1216078
1216343
1216605
1216864
1217118
1217369
1217620
1217867
1218113
1218361
1218610
1218862
1219119
1219379
1219647
1219921
1220195
1220474
1220747
1221015
1221285
1221556
1221823
1222091
1222358
1222628
1222898
1223171
1223447
1223722
1224002
1224282
1224560
1224838
1225117
1225395
1225675
1225954
1226230
1226512
1226797
1227081
1227365
1227650
1227936
1228216
1228490
1228772
1229053
1229338
1229621
1229905
1230190
1230475
1230757
1231040
1231321
1231599
1231875
1232150
1232419
1232688
1232954
1233218
1233482
1233742
1234001
1234255
1234510
1234766
1235022
1235277
1235532
1235787
1236046
1236306
1236564
1236826
1237088
1237357
1237626
1237898
1238175
1238455
1238738
1239021
1239307
1239594
1239877
1240167
1240455
1240744
1241030
1241316
1241608
1241897
1242184
1242470
1242760
1243046
1243331
1243614
1243899
1244184
1244471
1244754
1245041
1245332
1245622
1245914
1246204
1246497
1246793
1247085
1247376
1247663
1247945
1248222
1248493
1248762
1249032
1249301
1249570
1249840
1250109
1250378
1250649
1250924
1251195
1251465
1251734
1252003
1252274
1252545
1252816
1253084
1253356
1253643
1253953
1254245
1254544
1254839
1255144
1255447
1255748
1256045
1256342
1256644
1256944
1257242
1257535
1257831
1258124
1258409
1258686
1258965
1259247
1259535
1259836
1260134
1260433
1260742
1261048
1261355
1261657
1261964
1262268
1262568
1262868
1263168
1263466
1263765
1264065
1264364
1264660
1264948
1265228
1265510
1265791
1266072
1266353
1266637
1266939
1267268
1267580
1267883
1268186
1268484
1268786
1269087
1269382
1269671
1269956
1270242
1270539
1270832
1271124
1271416
1271712
1272021
1272323
1272630
1272936
1273248
1273568
1273882
1274193
1274501
1274812
1275114
1275417
1275730
1276042
1276358
1276681
1277007
1277322
1277631
1277942
1278253
1278552
1278842
1279137
1279441
1279727
1280013
1280297
1280594
1280883
1281174
1281459
1281743
1282028
1282316
1282605
1282888
1283171
1283449
1283732
1284030
1284339
1284642
1284944
1285244
1285548
1285869
1286185
1286500
1286811
1287120
1287438
1287749
1288059
1288366
1288673
1288985
1289293
1289596
1289894
1290183
1290474
1290758
1291047
1291334
1291639
1291963
1292274
1292589
1292902
1293215
1293531
1293839
1294140
1294416
1294681
1294963
1295269
1295583
1295909
1296256
1296587
1296913
1297231
1297558
1297883
1298204
1298519
1298830
1299124
1299418
1299719
1300016
1300314
1300613
1300912
1301218
1301514
1301800
1302074
1302347
1302625
1302900
1303177
1303463
1303760
1304091
1304401
1304711
1305020
1305328
1305640
1305938
1306216
1306487
1306758
1307039
1307319
1307597
1307876
1308155
1308438
1308719
1308995
1309263
1309531
1309804
1310080
1310352
1310621
1310889
1311164
1311434
1311704
1311973
1312244
1312518
1312794
1313068
1313338
1313607
1313874
1314148
1314429
1314706
1314986
1315268
1315547
1315828
1316104
1316375
1316646
1316924
1317209
1317485
1317761
1318038
1318308
1318580
1318853
1319128
1319405
1319707
1319988
1320300
1320593
1320882
1321171
1321457
1321744
1322026
1322303
1322576
1322852
1323148
1323456
1323766
1324083
1324810
1325185
1325533
1325858
1326173
1326484
1326803
1327112
1327418
1327723
1328016
1328300
1328605
1328923
1329244
1329727
1330142
1330458
1330778
1331075
1331369
1331667
1331941
1332208
1332478
1332745
1333010
1333274
1333539
1333810
1334084
1334370
1334667
1334963
1335266
1335565
1335863
1336158
1336453
1336753
1337040
1337341
1337634
1337939
1338236
1338551
1338856
1339159
1339476
1339789
1340097
1340406
1340715
1341022
1341326
1341639
1341948
1342253
1342560
1342869
1343176
1343481
1343793
1344092
1344389
1344670
1344949
1345216
1345481
1345743
1346005
1346263
1346524
1346790
1347062
1347335
1347612
1347894
1348176
1348463
1348742
1349023
1349299
1349568
1349832
1350089
1350342
1350586
1350833
1351081
1351325
1351570
1351816
1352058
1352321
1352593
1352861
1353119
1353379
1353637
1353885
1354126
1354363
1354591
1354820
1355045
1355265
1355484
1355700
1355911
1356123
1356335
1356550
1356767
1356986
1357206
1357429
1357652
1357878
1358103
1358321
1358539
1358758
1358982
1359214
1359451
1359689
1359932
1360175
1360420
1360665
1360919
1361171
1361427
1361685
1361944
1362207
1362477
1362747
1363018
1363288
1363556
1363825
1364095
1364373
1364647
1364920
1365193
1365473
1365746
1366017
1366292
1366560
1366827
1367088
1367343
1367589
1367832
1368073
1368315
1368565
1368817
1369072
1369331
1369597
1369866
1370142
1370417
1370691
1370961
1371236
1371507
1371783
1372057
1372330
1372602
1372881
1373155
1373428
1373701
1373973
1374245
1374525
1374807
1375093
1375374
1375649
1375925
1376203
1376478
1376749
1377020
1377290
1377559
1377827
1378088
1378347
1378601
1378853
1379104
1379358
1379617
1379879
1380145
1380417
1380691
1380965
1381245
1381525
1381802
1382081
1382368
1382653
1382929
1383200
1383467
1383736
1384001
1384264
1384531
1384801
1385074
1385354
1385633
1385911
1386186
1386461
1386734
1387009
1387281
1387556
1387827
1388097
1388368
1388642
1388913
1389181
1389449
1389717
1389988
1390256
1390523
1390789
1391056
1391324
1391598
1391875
1392147
1392417
1392686
1392953
1393221
1393482
1393740
1394000
1394261
1394525
1394790
1395052
1395309
1395566
1395821
1396076
1396332
1396589
1396845
1397103
1397364
1397622
1397878
1398132
1398388
1398641
1398891
1399137
1399382
1399628
1399874
1400118
1400365
1400617
1400874
1401136
1401399
1401656
1401912
1402163
1402405
1402643
1402874
1403102
1403327
1403553
1403785
1404032
1404284
1404538
1404805
1405080
1405350
1405621
1405897
1406172
1406446
1406722
1406991
1407255
1407515
1407770
1408024
1408277
1408530
1408781
1409033
1409285
1409533
1409779
1410026
1410279
1410536
1410801
1411070
1411332
1411593
1411851
1412107
1412360
1412611
1412864
1413118
1413376
1413641
1413903
1414168
1414436
1414702
1414971
1415245
1415520
1415790
1416065
1416336
1416612
1416879
1417148
1417415
1417686
1417948
1418209
1418477
1418738
1418998
1419254
1419507
1419756
1420003
1420252
1420503
1420754
1421003
1421255
1421507
1421758
1422008
1422262
1422511
1422760
1423009
1423256
1423503
1423754
1424007
1424263
1424519
1424777
1425031
1425279
1425520
1425760
1425995
1426230
1426468
1426705
1426942
1427179
1427417
1427652
1427886
1428117
1428351
1428595
1428842
1429087
1429337
1429587
1429841
1430097
1430354
1430616
1430875
1431135
1431394
1431651
1431907
1432161
1432416
1432670
1432922
1433173
1433419
1433668
1433921
1434174
1434435
1434700
1434959
1435220
1435480
1435739
1435992
1436238
1436479
1436715
1436953
1437191
1437431
1437675
1437923
1438179
1438436
1438692
1438953
1439214
1439478
1439740
1440003
1440261
1440517
1440773
1441025
1441275
1441524
1441773
1442022
1442271
1442518
1442767
1443014
1443264
1443512
1443761
1444008
1444254
1444501
1444748
1444998
1445248
1445496
1445748
1446004
1446262
1446522
1446784
1447045
1447308
1447574
1447839
1448108
1448373
1448636
1448897
1449160
1449419
1449677
1449937
1450204
1450466
1450733
1451002
1451273
1451542
1451811
1452080
1452351
1452620
1452888
1453154
1453413
1453673
1453932
1454192
1454454
1454717
1454987
1455258
1455527
1455799
1456068
1456335
1456600
1456867
1457117
1457360
1457599
1457837
1458070
1458301
1458530
1458758
1458983
1459205
1459428
1459648
1459870
1460090
1460306
1460523
1460738
1460952
1461164
1461377
1461590
1461805
1462018
1462229
1462443
1462658
1462872
1463084
1463304
1463520
1463734
1463952
1464173
1464392
1464610
1464830
1465048
1465265
1465481
1465700
1465917
1466133
1466350
1466570
1466791
1467016
1467239
1467466
1467696
1467932
1468166
1468405
1468645
1468889
1469137
1469386
1469632
1469884
1470136
1470388
1470638
1470887
1471139
1471391
1471645
1471896
1472149
1472403
1472655
1472901
1473151
1473398
1473645
1473894
1474144
1474394
1474644
1474899
1475155
1475413
1475671
1475933
1476191
1476451
1476707
1476961
1477209
1477454
1477692
1477928
1478163
1478393
1478624
1478859
1479093
1479333
1479578
1479825
1480077
1480329
1480586
1480846
1481107
1481371
1481634
1481900
1482163
1482427
1482694
1482960
1483223
1483486
1483749
1484011
1484276
1484541
1484805
1485073
1485339
1485608
1485875
1486141
1486409
1486675
1486939
1487202
1487461
1487720
1487980
1488240
1488501
1488761
1489029
1489300
1489570
1489839
1490107
1490380
1490653
1490926
1491198
1491471
1491744
1492017
1492287
1492553
1492823
1493093
1493364
1493635
1493908
1494181
1494455
1494731
1495006
1495281
1495557
1495834
1496111
1496386
1496663
1496941
1497220
1497498
1497772
1498050
1498328
1498604
1498873
1499139
1499403
1499669
1499936
1500204
1500471
1500737
1501011
1501288
1501558
1501833
1502108
1502386
1502663
1502938
1503217
1503497
1503777
1504057
1504336
1504618
1504899
1505180
1505458
1505736
1506014
1506291
1506568
1506841
1507113
1507380
1507644
1507902
1508155
1508406
1508656
1508903
1509153
1509403
1509654
1509908
1510164
1510426
1510689
1510960
1511235
1511511
1511786
1512060
1512340
1512620
1512899
1513177
1513455
1513734
1514014
1514293
1514571
1514847
1515125
1515397
1515665
1515926
1516184
1516439
1516696
1516957
1517219
1517493
1517768
1518047
1518323
1518599
1518879
1519160
1519439
1519715
1519986
1520252
1520516
1520777
1521029
1521273
1521512
1521746
1521979
1522207
1522432
1522658
1522891
1523134
1523383
1523635
1523885
1524142
1524402
1524671
1524940
1525208
1525476
1525747
1526019
1526291
1526563
1526835
1527106
1527381
1527657
1527933
1528210
1528485
1528761
1529040
1529320
1529601
1529881
1530160
1530439
1530721
1531003
1531283
1531562
1531838
1532110
1532378
1532648
1532919
1533189
1533459
1533730
1534003
1534276
1534550
1534826
1535108
1535398
1535682
1535969
1536258
1536543
1536829
1537119
1537407
1537694
1537980
1538264
1538549
1538834
1539120
1539404
1539688
1539971
1540256
1540542
1540827
1541111
1541393
1541678
1541963
1542250
1542536
1542820
1543105
1543390
1543678
1543963
1544249
1544532
1544815
1545099
1545383
1545667
1545950
1546233
1546518
1546805
1547092
1547380
1547667
1547951
1548237
1548526
1548814
1549104
1549391
1549677
1549966
1550256
1550542
1550827
1551104
1551379
1551655
1551934
1552215
1552496
1552775
1553052
1553333
1553610
1553884
1554159
1554431
1554705
1554980
1555253
1555525
1555796
1556069
1556340
1556609
1556877
1557144
1557412
1557684
1557957
1558232
1558512
1558790
1559070
1559346
1559627
1559906
1560183
1560459
1560733
1561008
1561283
1561557
1561835
1562114
1562396
1562677
1562963
1563247
1563534
1563815
1564091
1564373
1564652
1564933
1565212
1565492
1565774
1566058
1566347
1566631
1566917
1567201
1567484
1567767
1568054
1568339
1568621
1568901
1569184
1569465
1569751
1570033
1570315
1570598
1570878
1571161
1571447
1571734
1572020
1572303
1572588
1572873
1573158
1573439
1573718
1573996
1574274
1574558
1574840
1575119
1575399
1575678
1575951
1576223
1576492
1576762
1577030
1577297
1577566
1577836
1578112
1578386
1578662
1578939
1579217
1579494
1579768
1580039
1580312
1580582
1580852
1581123
1581390
1581660
1581929
1582195
1582463
1582731
1583000
1583270
1583538
1583804
1584065
1584321
1584570
1584813
1585058
1585315
1585601
1585881
1586158
1586438
1586720
1587007
1587295
1587583
1587873
1588164
1588457
1588750
1589045
1589343
1589639
1589938
1590237
1590536
1590838
1591140
1591442
1591738
1592033
1592332
1592631
1592927
1593222
1593516
1593803
1594092
1594379
1594670
1594962
1595251
1595534
1595824
1596116
1596410
1596704
1597000
1597291
1597586
1597878
1598167
1598461
1598748
1599040
1599338
1599636
1599930
1600222
1600508
1600792
1601078
1601362
1601647
1601929
1602207
1602486
1602772
1603061
1603355
1603647
1603939
1604231
1604530
1604825
1605122
1605418
1605708
1605998
1606290
1606583
1606873
1607159
1607440
1607725
1608008
1608293
1608580
1608868
1609155
1609441
1609724
1610003
1610282
1610557
1610832
1611107
1611387
1611669
1611952
1612236
1612520
1612805
1613089
1613374
1613658
1613939
1614219
1614503
1614790
1615075
1615356
1615635
1615914
1616190
1616463
1616737
1617010
1617280
1617551
1617827
1618105
1618387
1618666
1618946
1619222
1619501
1619777
1620058
1620339
1620624
1620906
1621199
1621489
1621780
1622068
1622350
1622634
1622921
1623213
1623507
1623798
1624087
1624377
1624668
1624961
1625253
1625546
1625830
1626115
1626400
1626684
1626969
1627252
1627536
1627818
1628102
1628389
1628672
1628956
1629237
1629517
1629799
1630081
1630363
1630643
1630923
1631204
1631487
1631773
1632059
1632346
1632629
1632919
1633210
1633503
1633792
1634080
1634365
1634653
1634943
1635238
1635532
1635834
1636123
1636416
1636710
1637008
1637305
1637600
1637890
1638178
1638470
1638760
1639046
1639327
1639610
1639893
1640180
1640463
1640749
1641033
1641321
1641608
1641898
1642185
1642469
1642753
1643035
1643318
1643597
1643873
1644147
1644422
1644698
1644977
1645260
1645546
1645828
1646112
1646396
1646681
1646968
1647249
1647530
1647812
1648096
1648379
1648661
1648942
1649225
1649513
1649804
1650094
1650385
1650669
1650952
1651240
1651527
1651811
1652096
1652376
1652655
1652941
1653229
1653528
1653825
1654119
1654409
1654710
1655009
1655307
1655605
1655898
1656194
1656489
1656782
1657069
1657350
1657628
1657904
1658185
1658466
1658750
1659032
1659309
1659589
1659867
1660146
1660430
1660712
1660992
1661273
1661555
1661843
1662133
1662419
1662704
1662991
1663280
1663566
1663850
1664134
1664417
1664706
1664994
1665289
1665581
1665867
1666151
1666441
1666729
1667017
1667306
1667588
1667876
1668166
1668459
1668751
1669047
1669338
1669625
1669914
1670207
1670503
1670796
1671084
1671371
1671662
1671948
1672233
1672513
1672790
1673067
1673342
1673622
1673901
1674182
1674459
1674737
1675016
1675296
1675577
1675860
1676139
1676421
1676702
1676983
1677263
1677540
1677816
1678092
1678372
1678653
1678937
1679220
1679503
1679787
1680072
1680357
1680638
1680918
1681196
1681476
1681755
1682035
1682316
1682596
1682875
1683159
1683444
1683725
1684011
1684293
1684574
1684857
1685140
1685418
1685697
1685973
1686251
1686532
1686813
1687103
1687391
1687682
1687973
1688264
1688554
1688846
1689134
1689418
1689701
1689991
1690281
1690566
1690852
1691132
1691413
1691697
1691990
1692280
1692570
1692860
1693148
1693440
1693732
1694025
1694314
1694598
1694888
1695173
1695456
1695740
1696022
1696302
1696592
1696882
1697175
1697471
1697759
1698043
1698327
1698608
1698887
1699164
1699437
1699709
1699979
1700253
1700524
1700793
1701062
1701329
1701594
1701858
1702122
1702385
1702647
1702911
1703174
1703444
1703713
1703986
1704255
1704527
1704799
1705070
1705343
1705613
1705884
1706154
1706426
1706701
1706977
1707250
1707524
1707804
1708088
1708376
1708661
1708945
1709227
1709509
1709792
1710073
1710353
1710629
1710908
1711191
1711478
1711767
1712058
1712345
1712627
1712909
1713190
1713469
1713751
1714031
1714315
1714601
1714892
1715183
1715471
1715756
1716041
1716330
1716626
1716923
1717217
1717507
1717794
1718079
1718361
1718642
1718923
1719202
1719488
1719775
1720062
1720347
1720637
1720921
1721206
1721493
1721781
1722071
1722365
1722651
1722934
1723217
1723501
1723787
1724072
1724355
1724639
1724932
1725236
1725533
1725832
1726128
1726426
1726729
1727030
1727331
1727628
1727923
1728213
1728502
1728799
1729097
1729393
1729689
1729984
1730277
1730566
1730852
1731136
1731421
1731707
1731991
1732272
1732552
1732826
1733102
1733374
1733650
1733929
1734215
1734497
1734781
1735067
1735352
1735638
1735921
1736205
1736487
1736769
1737052
1737335
1737620
1737902
1738184
1738471
1738756
1739042
1739325
1739604
1739879
1740150
1740417
1740678
1740930
1741176
1741422
1741671
1741932
1742207
1742491
1742776
1743068
1743360
1743654
1743946
1744236
1744531
1744826
1745120
1745413
1745701
1745991
1746283
1746568
1746855
1747141
1747427
1747716
1748005
1748295
1748586
1748876
1749165
1749459
1749753
1750046
1750339
1750629
1750919
1751210
1751495
1751779
1752057
1752335
1752613
1752892
1753171
1753449
1753722
1753990
1754258
1754527
1754797
1755070
1755345
1755621
1755897
1756174
1756451
1756730
1757009
1757287
1757562
1757834
1758106
1758380
1758654
1758926
1759199
1759472
1759748
1760033
1760321
1760611
1760899
1761187
1761473
1761758
1762042
1762326
1762606
1762887
1763163
1763440
1763712
1763982
1764253
1764522
1764796
1765076
1765356
1765641
1765923
1766204
1766481
1766757
1767032
1767309
1767582
1767860
1768137
1768416
1768693
1768968
1769241
1769507
1769770
1770029
1770283
1770530
1770772
1771010
1771252
1771496
1771743
1771990
1772241
1772498
1772758
1773026
1773299
1773573
1773852
1774140
1774425
1774711
1774996
1775278
1775566
1775855
1776145
1776434
1776721
1777009
1777299
1777588
1777878
1778162
1778440
1778714
1778981
1779250
1779509
1779768
1780031
1780293
1780559
1780825
1781089
1781349
1781607
1781861
1782112
1782362
1782608
1782848
1783086
1783322
1783556
1783788
1784018
1784249
1784480
1784713
1784944
1785177
1785413
1785651
1785892
1786134
1786378
1786626
1786876
1787128
1787380
1787632
1787887
1788136
1788387
1788638
1788887
1789135
1789384
1789631
1789879
1790127
1790380
1790636
1790891
1791149
1791409
1791666
1791920
1792172
1792421
1792665
1792907
1793150
1793383
1793618
1793853
1794086
1794313
1794999
1795228
1795456
1795687
1795918
1796148
1796378
1796607
1796838
1797069
1797304
1797543
1797784
1798026
1798270
1798515
1798764
1799014
1799264
1799516
1799769
1800026
1800284
1800542
1800804
1801067
1801336
1801598
1801865
1802132
1802397
1802653
1802906
1803151
1803390
1803624
1803855
1804086
1804317
1804553
1804798
1805051
1805303
1805560
1805827
1806094
1806365
1806632
1806907
1807180
1807455
1807726
1807996
1808273
1808547
1808809
1809063
1809305
1809553
1809797
1810040
1810284
1810531
1810779
1811031
1811282
1811535
1811787
1812037
1812285
1812533
1812781
1813030
1813278
1813527
1813773
1814019
1814265
1814510
1814755
1815002
1815249
1815497
1815747
1815994
1816241
1816486
1816730
1816975
1817220
1817466
1817712
1817956
1818199
1818442
1818683
1818927
1819167
1819408
1819648
1819890
1820131
1820375
1820620
1820866
1821110
1821359
1821608
1821858
1822105
1822353
1822600
1822846
1823091
1823342
1823593
1823847
1824105
1824367
1824626
1824885
1825146
1825406
1825666
1825922
1826176
1826431
1826687
1826942
1827198
1827455
1827715
1827976
1828235
1828490
1828742
1828994
1829247
1829504
1829764
1830021
1830280
1830540
1830798
1831055
1831309
1831560
1831809
1832060
1832314
1832570
1832828
1833089
1833349
1833609
1833870
1834132
1834392
1834651
1834903
1835159
1835416
1835678
1835940
1836200
1836460
1836723
1836982
1837240
1837494
1837745
1837993
1838235
1838475
1838716
1838962
1839217
1839476
1839736
1839996
1840261
1840524
1840791
1841061
1841336
1841609
1841883
1842155
1842433
1842710
1842989
1843265
1843545
1843822
1844102
1844382
1844663
1844944
1845223
1845504
1845788
1846072
1846353
1846634
1846919
1847203
1847488
1847772
1848051
1848333
1848619
1848905
1849191
1849472
1849753
1850041
1850327
1850612
1850897
1851178
1851463
1851748
1852032
1852315
1852596
1852878
1853163
1853448
1853733
1854018
1854303
1854594
1854881
1855169
1855455
1855739
1856028
1856314
1856599
1856880
1857160
1857438
1857714
1857990
1858268
1858544
1858825
1859114
1859398
1859683
1859967
1860253
1860541
1860829
1861117
1861404
1861692
1861981
1862267
1862554
1862836
1863120
1863406
1863691
1863975
1864257
1864541
1864826
1865112
1865398
1865681
1865964
1866252
1866540
1866827
1867113
1867397
1867684
1867973
1868261
1868549
1868834
1869121
1869412
1869700
1869987
1870271
1870555
1870839
1871125
1871412
1871697
1871981
1872267
1872555
1872843
1873129
1873413
1873698
1873987
1874275
1874561
1874845
1875129
1875416
1875702
1875987
1876269
1876547
1876827
1877105
1877388
1877666
1877944
1878223
1878508
1878793
1879084
1879370
1879652
1879935
1880220
1880509
1880795
1881076
1881359
1881645
1881934
1882219
1882505
1882788
1883071
1883355
1883637
1883922
1884199
1884475
1884752
1885028
1885307
1885583
1885856
1886131
1886407
1886689
1886971
1887247
1887527
1887809
1888093
1888380
1888665
1888948
1889232
1889513
1889791
1890068
1890342
1890622
1890909
1891197
1891484
1891769
1892055
1892344
1892628
1892912
1893188
1893462
1893740
1894019
1894299
1894579
1894857
1895136
1895419
1895704
1895987
1896271
1896551
1896836
1897121
1897403
1897685
1897961
1898242
1898521
1898798
1899073
1899345
1899617
1899894
1900176
1900453
1900726
1900998
1901271
1901543
1901817
1902088
1902360
1902631
1902905
1903178
1903452
1903726
1903996
1904266
1904539
1904812
1905083
1905357
1905626
1905899
1906172
1906445
1906720
1906991
1907266
1907540
1907821
1908104
1908391
1908668
1908947
1909225
1909508
1909788
1910061
1910336
1910611
1910886
1911164
1911445
1911727
1912009
1912295
1912579
1912863
1913142
1913417
1913695
1913969
1914247
1914523
1914796
1915073
1915349
1915628
1915906
1916186
1916464
1916737
1917008
1917279
1917547
1917810
1918075
1918340
1918608
1918879
1919149
1919415
1919679
1919940
1920195
1920445
1920691
1920937
1921181
1921431
1921689
1921951
1922217
1922482
1922754
1923028
1923306
1923585
1923860
1924137
1924417
1924699
1924981
1925262
1925541
1925829
1926116
1926403
1926692
1926978
1927267
1927559
1927850
1928140
1928426
1928712
1929003
1929291
1929579
1929864
1930148
1930428
1930705
1930986
1931262
1931535
1931808
1932080
1932352
1932625
1932898
1933173
1933447
1933721
1933995
1934268
1934543
1934817
1935093
1935369
1935649
1935931
1936217
1936499
1936780
1937064
1937349
1937634
1937920
1938202
1938487
1938772
1939057
1939343
1939626
1939909
1940192
1940473
1940752
1941037
1941317
1941600
1941888
1942173
1942459
1942747
1943031
1943316
1943604
1943891
1944179
1944464
1944751
1945040
1945329
1945616
1945903
1946188
1946471
1946750
1947029
1947316
1947592
1947867
1948144
1948422
1948702
1948985
1949264
1949546
1949830
1950112
1950390
1950668
1950941
1951216
1951492
1951771
1952048
1952327
1952605
1952883
1953158
1953433
1953706
1953977
1954247
1954518
1954791
1955064
1955334
1955602
1955870
1956137
1956405
1956670
1956938
1957204
1957471
1957733
1957996
1958260
1958523
1958789
1959058
1959330
1959605
1959884
1960160
1960440
1960719
1960998
1961277
1961555
1961831
1962105
1962376
1962652
1962926
1963195
1963467
1963740
1964017
1964291
1964567
1964843
1965119
1965401
1965683
1965965
1966247
1966529
1966814
1967103
1967390
1967676
1967961
1968246
1968534
1968820
1969105
1969390
1969670
1969952
1970236
1970521
1970803
1971086
1971364
1971639
1971918
1972205
1972493
1972778
1973060
1973347
1973635
1973922
1974209
1974493
1974776
1975064
1975350
1975632
1975912
1976185
1976460
1976737
1977014
1977291
1977567
1977839
1978111
1978385
1978655
1978924
1979195
1979468
1979744
1980022
1980301
1980580
1980855
1981132
1981409
1981682
1981960
1982234
1982505
1982780
1983049
1983324
1983599
1983877
1984153
1984430
1984708
1984987
1985265
1985537
1985810
1986082
1986354
1986627
1986904
1987187
1987464
1987747
1988025
1988310
1988595
1988872
1989150
1989432
1989713
1989991
1990267
1990538
1990808
1991078
1991347
1991621
1991894
1992164
1992439
1992716
1992994
1993274
1993551
1993828
1994106
1994384
1994662
1994940
1995215
1995485
1995756
1996029
1996300
1996573
1996843
1997118
1997397
1997676
1997955
1998231
1998502
1998772
1999044
1999316
1999598
1999878
2000154
2000429
2000709
2000989
2001268
2001547
2001822
2002095
2002370
2002647
2002925
2003203
2003478
2003757
2004034
2004313
2004588
2004864
2005134
2005403
2005672
2005942
2006213
2006485
2006752
2007021
2007287
2007550
2007809
2008062
2008312
2008564
2008824
2009092
2009362
2009627
2009896
2010158
2010414
2010667
2010919
2011169
2011418
2011665
2011909
2012151
2012389
2012626
2012863
2013099
2013333
2013569
2013802
2014036
2014271
2014506
2014744
2014985
2015226
2015471
2015716
2015965
2016211
2016460
2016711
2016963
2017219
2017478
2017743
2018009
2018278
2018544
2018814
2019085
2019356
2019628
2019897
2020165
2020434
2020703
2020971
2021239
2021506
2021772
2022037
2022306
2022571
2022835
2023101
2023368
2023634
2023900
2024166
2024430
2024694
2024958
2025219
2025482
2025742
2026004
2026267
2026531
2026794
2027059
2027322
2027585
2027849
2028112
2028376
2028637
2028899
2029158
2029424
2029688
2029954
2030223
2030493
2030764
2031035
2031305
2031577
2031850
2032123
2032397
2032669
2032942
2033209
2033478
2033749
2034019
2034289
2034557
2034824
2035088
2035352
2035618
2035882
2036151
2036422
2036693
2036963
2037236
2037508
2037780
2038054
2038328
2038601
2038874
2039148
2039421
2039693
2039965
2040235
2040501
2040767
2041035
2041303
2041570
2041836
2042103
2042369
2042639
2042911
2043181
2043452
2043722
2043990
2044260
2044533
2044807
2045081
2045351
2045621
2045889
2046159
2046429
2046697
2046964
2047232
2047505
2047783
2048057
2048332
2048606
2048882
2049160
2049436
2049711
2049986
2050259
2050531
2050801
2051068
2051331
2051595
2051859
2052124
2052388
2052653
2052920
2053183
2053445
2053707
2053970
2054236
2054504
2054771
2055039
2055305
2055569
2055834
2056096
2056356
2056616
2056876
2057136
2057396
2057653
2057911
2058168
2058424
2058681
2058938
2059193
2059452
2059710
2059969
2060228
2060487
2060747
2061009
2061271
2061532
2061796
2062059
2062320
2062584
2062847
2063110
2063374
2063638
2063900
2064161
2064423
2064688
2064952
2065219
2065485
2065751
2066018
2066286
2066555
2066822
2067091
2067360
2067627
2067897
2068165
2068433
2068700
2068966
2069229
2069491
2069752
2070015
2070277
2070538
2070800
2071063
2071330
2071599
2071868
2072135
2072402
2072670
2072938
2073205
2073469
2073729
2073986
2074241
2074494
2074749
2075002
2075254
2075507
2075758
2076010
2076262
2076518
2076778
2077041
2077308
2077571
2077834
2078102
2078369
2078637
2078904
2079171
2079436
2079703
2079969
2080234
2080499
2080763
2081027
2081291
2081555
2081820
2082083
2082346
2082608
2082869
2083129
2083392
2083657
2083921
2084185
2084449
2084714
2084980
2085245
2085509
2085773
2086034
2086293
2086552
2086810
2087071
2087331
2087592
2087855
2088118
2088385
2088650
2088914
2089179
2089444
2089711
2089978
2090246
2090515
2090783
2091050
2091315
2091580
2091842
2092103
2092364
2092626
2092890
2093157
2093426
2093693
2093960
2094228
2094495
2094763
2095031
2095299
2095565
2095827
2096089
2096348
2096608
2096870
2097132
2097396
2097660
2097924
2098188
2098454
2098720
2098985
2099250
2099515
2099781
2100049
2100317
2100584
2100850
2101117
2101382
2101649
2101914
2102179
2102443
2102703
2102961
2103218
2103476
2103737
2103998
2104259
2104520
2104783
2105048
2105312
2105575
2105837
2106099
2106357
2106614
2106870
2107125
2107377
2107632
2107886
2108144
2108405
2108667
2108932
2109195
2109458
2109721
2109985
2110249
2110512
2110774
2111037
2111299
2111563
2111826
2112091
2112354
2112618
2112880
2113143
2113407
2113670
2113931
2114192
2114452
2114713
2114976
2115241
2115503
2115766
2116028
2116291
2116554
2116818
2117081
2117343
2117601
2117859
2118117
2118373
2118629
2118885
2119143
2119402
2119662
2119922
2120186
2120449
2120711
2120974
2121236
2121500
2121767
2122031
2122295
2122559
2122823
2123087
2123347
2123609
2123874
2124136
2124401
2124664
2124929
2125194
2125458
2125723
2125990
2126255
2126523
2126792
2127061
2127329
2127598
2127865
2128131
2128398
2128663
2128929
2129195
2129459
2129723
2129987
2130254
2130520
2130786
2131051
2131314
2131574
2131833
2132091
2132352
2132616
2132880
2133146
2133412
2133679
2133945
2134210
2134473
2134732
2134990
2135251
2135514
2135776
2136037
2136299
2136560
2136822
2137083
2137344
2137605
2137867
2138127
2138392
2138656
2138920
2139184
2139448
2139713
2139979
2140245
2140512
2140779
2141046
2141313
2141578
2141845
2142111
2142378
2142643
2142908
2143171
2143435
2143700
2143963
2144225
2144484
2144743
2145002
2145261
2145522
2145780
2146039
2146295
2146551
2146806
2147061
2147316
2147570
2147822
2148074
2148325
2148576
2148827
2149077
2149327
2149577
2149826
2150074
2150324
2150572
2150818
2151062
2151305
2151547
2151789
2152032
2152275
2152518
2152762
2153007
2153255
2153504
2153757
2154012
2154270
2154527
2154783
2155039
2155292
2155543
2155794
2156044
2156294
2156544
2156795
2157046
2157298
2157551
2157804
2158059
2158316
2158573
2158830
2159087
2159344
2159601
2159857
2160113
2160369
2160623
2160881
2161138
2161396
2161656
2161915
2162176
2162440
2162703
2162967
2163230
2163494
2163757
2164019
2164282
2164544
2164805
2165067
2165327
2165588
2165848
2166108
2166367
2166627
2166887
2167145
2167403
2167660
2167919
2168179
2168437
2168696
2168956
2169219
2169484
2169751
2170020
2170291
2170563
2170836
2171110
2171383
2171654
2171925
2172194
2172464
2172733
2173001
2173267
2173525
2173781
2174038
2174295
2174549
2174801
2175050
2175301
2175552
2175802
2176052
2176303
2176553
2176802
2177052
2177301
2177553
2177805
2178057
2178312
2178567
2178826
2179088
2179351
2179613
2179876
2180140
2180403
2180666
2180930
2181193
2181447
2181701
2181952
2182205
2182458
2182712
2182965
2183221
2183478
2183734
2183990
2184247
2184509
2184768
2185029
2185290
2185551
2185812
2186072
2186333
2186594
2186856
2187119
2187381
2187644
2187906
2188171
2188433
2188696
2188957
2189216
2189474
2189733
2189990
2190245
2190498
2190752
2191006
2191260
2191516
2191773
2192034
2192295
2192554
2192815
2193075
2193338
2193601
2193863
2194125
2194388
2194651
2194915
2195181
2195447
2195712
2195976
2196240
2196504
2196767
2197030
2197290
2197546
2197804
2198060
2198319
2198581
2198841
2199101
2199362
2199624
2199886
2200150
2200417
2200681
2200946
2201211
2201475
2201739
2202005
2202271
2202537
2202802
2203067
2203331
2203597
2203864
2204133
2204402
2204669
2204939
2205209
2205479
2205749
2206018
2206285
2206550
2206815
2207079
2207342
2207598
2207851
2208105
2208357
2208609
2208861
2209111
2209358
2209604
2209848
2210091
2210332
2210572
2210812
2211051
2211289
2211526
2211764
2212004
2212247
2212491
2212739
2212991
2213245
2213503
2213761
2214020
2214280
2214541
2214800
2215058
2215316
2215569
2215820
2216071
2216321
2216573
2216824
2217078
2217330
2217582
2217834
2218090
2218347
2218604
2218863
2219122
2219383
2219644
2219905
2220166
2220429
2220690
2220952
2221213
2221475
2221736
2221999
2222260
2222517
2222768
2223016
2223263
2223509
2223755
2224000
2224245
2224489
2224733
2224977
2225222
2225468
2225717
2225968
2226222
2226477
2226734
2226992
2227250
2227510
2227767
2228026
2228285
2228544
2228804
2229066
2229326
2229586
2229847
2230107
2230367
2230625
2230883
2231143
2231401
2231656
2231911
2232166
2232424
2232683
2232943
2233204
2233462
2233724
2233985
2234247
2234511
2234774
2235039
2235303
2235568
2235832
2236096
2236360
2236624
2236886
2237149
2237411
2237673
2237934
2238197
2238459
2238720
2238981
2239242
2239500
2239754
2240006
2240257
2240508
2240759
2241014
2241272
2241532
2241792
2242051
2242310
2242570
2242831
2243092
2243354
2243615
2243877
2244141
2244404
2244667
2244930
2245193
2245458
2245723
2245990
2246256
2246523
2246787
2247052
2247318
2247582
2247845
2248103
2248360
2248615
2248873
2249130
2249386
2249642
2249895
2250150
2250406
2250664
2250924
2251190
2251453
2251716
2251979
2252242
2252507
2252771
2253034
2253291
2253548
2253804
2254060
2254315
2254572
2254832
2255092
2255351
2255613
2255874
2256136
2256400
2256664
2256925
2257186
2257448
2257711
2257977
2258244
2258510
2258775
2259040
2259303
2259567
2259832
2260095
2260353
2260612
2260869
2261127
2261385
2261642
2261897
2262150
2262408
2262665
2262927
2263190
2263454
2263717
2263978
2264240
2264503
2264765
2265027
2265288
2265545
2265800
2266054
2266308
2266566
2266826
2267087
2267348
2267609
2267871
2268136
2268402
2268667
2268932
2269197
2269462
2269726
2269983
2270235
2270484
2270732
2270981
2271230
2271483
2271740
2271998
2272257
2272518
2272780
2273042
2273305
2273568
2273830
2274092
2274354
2274616
2274878
2275138
2275396
2275650
2275902
2276152
2276396
2276638
2276879
2277120
2277361
2277602
2277846
2278091
2278332
2278558
2278806
2279044
2279292
2279550
2279807
2280065
2280320
2280580
2280842
2281107
2281373
2281638
2281901
2282169
2282436
2282702
2282968
2283229
2283487
2283740
2283994
2284249
2284506
2284762
2285022
2285282
2285549
2285816
2286082
2286346
2286613
2286881
2287148
2287416
2287681
2287945
2288213
2288480
2288747
2289011
2289270
2289531
2289791
2290051
2290310
2290569
2290826
2291084
2291342
2291602
2291863
2292124
2292385
2292646
2292907
2293167
2293427
2293687
2293945
2294208
2294474
2294743
2295011
2295277
2295544
2295814
2296083
2296350
2296615
2296877
2297138
2297398
2297655
2297908
2298158
2298407
2298653
2298900
2299147
2299397
2299649
2299903
2300158
2300419
2300681
2300943
2301202
2301457
2301712
2302909
2303138
2303364
2303590
2303815
2304041
2304267
2304491
2304716
2304937
2305157
2305379
2305600
2305820
2306040
2306259
2306477
2306694
2306910
2307126
2307342
2307558
2307775
2307991
2308209
2308428
2308647
2308866
2309087
2309304
2309525
2309748
2309974
2310201
2310428
2310657
2310886
2311116
2311346
2311578
2311811
2312043
2312276
2312516
2312757
2313000
2313242
2313485
2313725
2313966
2314205
2314442
2314679
2314919
2315164
2315409
2315661
2315912
2316169
2316428
2316687
2316948
2317206
2317469
2317735
2318001
2318268
2318532
2318801
2319072
2319343
2319613
2319880
2320154
2320428
2320700
2320974
2321243
2321519
2321796
2322071
2322346
2322618
2322897
2323175
2323452
2323728
2323997
2324271
2324545
2324820
2325096
2325366
2325646
2325924
2326206
2326484
2326759
2327041
2327322
2327604
2327883
2328158
2328439
2328721
2329001
2329280
2329555
2329838
2330114
2330390
2330661
2330926
2331199
2331471
2331750
2332029
2332302
2332581
2332863
2333143
2333422
2333699
2333982
2334267
2334552
2334835
2335110
2335390
2335668
2335945
2336218
2336486
2336759
2337034
2337317
2337602
2337879
2338162
2338448
2338734
2339019
2339299
2339585
2339870
2340154
2340430
2340702
2340972
2341244
2341519
2341790
2342061
2342340
2342615
2342896
2343178
2343456
2343738
2344021
2344305
2344590
2344868
2345155
2345439
2345721
2346001
2346276
2346558
2346838
2347120
2347400
2347677
2347959
2348239
2348520
2348801
2349077
2349359
2349640
2349918
2350197
2350470
2350746
2351021
2351297
2351577
2351852
2352140
2352428
2352714
2353001
2353283
2353572
2353859
2354145
2354428
2354700
2354971
2355234
2355495
2355761
2356025
2356304
2356587
2356883
2357171
2357456
2357751
2358044
2358336
2358624
2358907
2359200
2359489
2359778
2360062
2360344
2360628
2360905
2361185
2361462
2361736
2362016
2362296
2362578
2362857
2363136
2363421
2363709
2363996
2364278
2364556
2364844
2365138
2365427
2365708
2365985
2366271
2366558
2366849
2367129
2367406
2367684
2367960
2368239
2368509
2368778
2369052
2369325
2369600
2369875
2370141
2370407
2370671
2370931
2371186
2371436
2371680
2371925
2372167
2372410
2372653
2372896
2373141
2373389
2373637
2373888
2374141
2374395
2374651
2374910
2375171
2375431
2375689
2375947
2376206
2376465
2376727
2376992
2377255
2377520
2377793
2378061
2378334
2378613
2378894
2379179
2379475
2379765
2380053
2380360
2380693
2381022
2381330
2381633
2381931
2382228
2382530
2382820
2383106
2383372
2383630
2383882
2384122
2384362
2384600
2384836
2385074
2385311
2385546
2385781
2386019
2386262
2386505
2386747
2386993
2387239
2387490
2387741
2387993
2388243
2388494
2388751
2389009
2389278
2389551
2389818
2390084
2390346
2390610
2390878
2391154
2391423
2391699
2391980
2392259
2392541
2392822
2393101
2393388
2393673
2393957
2394234
2394518
2394791
2395053
2395312
2395567
2395818
2396064
2396310
2396550
2396789
2397021
2397253
2397486
2397732
2397988
2398255
2398529
2398794
2399063
2399339
2399618
2399900
2400180
2400458
2400742
2401026
2401307
2401591
2401874
2402154
2402444
2402731
2403018
2403305
2403587
2403868
2404158
2404447
2404735
2405025
2405309
2405592
2405885
2406177
2406469
2406761
2407050
2407348
2407644
2407939
2408233
2408521
2408810
2409104
2409397
2409687
2409976
2410261
2410554
2410843
2411130
2411416
2411698
2411978
2412266
2412554
2412841
2413128
2413413
2413698
2413988
2414278
2414565
2414848
2415126
2415411
2415692
2415967
2416243
2416524
2416804
2417084
2417368
2417649
2417930
2418211
2418487
2418770
2419052
2419333
2419610
2419894
2420176
2420457
2420736
2421021
2421306
2421594
2421876
2422159
2422443
2422727
2423007
2423288
2423568
2423843
2424110
2424378
2424636
2424890
2425137
2425377
2425612
2425844
2426073
2426299
2426526
2426747
2426966
2427182
2427398
2427613
2427833
2428052
2428276
2428501
2428729
2428959
2429189
2429421
2429652
2429878
2430104
2430326
2430551
2430775
2431005
2431237
2431472
2431716
2431963
2432213
2432468
2432725
2432978
2433228
2433475
2433719
2433958
2434196
2434431
2434668
2434902
2435136
2435367
2435598
2435828
2436054
2436279
2436503
2436727
2436955
2437183
2437419
2437657
2437899
2438143
2438389
2438635
2438885
2439135
2439381
2439620
2439856
2440087
2440305
2440546
2440776
2441009
2441243
2441477
2441708
2441938
2442168
2442396
2442620
2442844
2443068
2443292
2443514
2443735
2443953
2444170
2444388
2444605
2444820
2445034
2445250
2445465
2445680
2445895
2446110
2446328
2446541
2446752
2446962
2447172
2447382
2447594
2447805
2448015
2448224
2448435
2448651
2448867
2449082
2449299
2449516
2449731
2449948
2450165
2450386
2450609
2450833
2451061
2451290
2451521
2451754
2452222
2452457
2452689
2452920
2453145
2453370
2453591
2453807
2454024
2454240
2454458
2454676
2454895
2455114
2455335
2455558
2455782
2456007
2456227
2456449
2456669
2456890
2457111
2457332
2457556
2457784
2458016
2458254
2458492
2458729
2458969
2459209
2459449
2459689
2459929
2460169
2460410
2460653
2460898
2461145
2461394
2461644
2461892
2462141
2462390
2462638
2462885
2463129
2463372
2463616
2463858
2464101
2464343
2464586
2464831
2465074
2465321
2465565
2465811
2466055
2466299
2466540
2466783
2467024
2467266
2467508
2467751
2467998
2468242
2468487
2468734
2468980
2469226
2469472
2469717
2469961
2470207
2470454
2470698
2470943
2471189
2471434
2471678
2471922
2472166
2472410
2472658
2472904
2473149
2473394
2473640
2473884
2474128
2474371
2474610
2474853
2475097
2475340
2475583
2475829
2476076
2476326
2476576
2476825
2477075
2477323
2477574
2477818
2478062
2478303
2478545
2478791
2479038
2479289
2479540
2479791
2480046
2480297
2480548
2480797
2481045
2481294
2481543
2481790
2482036
2482285
2482533
2482784
2483033
2483282
2483529
2483775
2484024
2484273
2484520
2484767
2485016
2485265
2485516
2485769
2486023
2486278
2486531
2486783
2487035
2487287
2487537
2487789
2488040
2488293
2488545
2488798
2489051
2489304
2489556
2489806
2490058
2490308
2490556
2490805
2491054
2491303
2491552
2491804
2492057
2492312
2492565
2492822
2493078
2493335
2493595
2493856
2494119
2494380
2494639
2494900
2495158
2495416
2495671
2495927
2496182
2496438
2496694
2496954
2497212
2497469
2497727
2497986
2498245
2498501
2498755
2499010
2499264
2499518
2499769
2500020
2500271
2500522
2500775
2501028
2501283
2501537
2501795
2502052
2502308
2502562
2502815
2503068
2503321
2503574
2503825
2504077
2504328
2504579
2504833
2505093
2505349
2505606
2505864
2506123
2506380
2506636
2506894
2507150
2507405
2507661
2507917
2508173
2508427
2508683
2508941
2509197
2509456
2509717
2509979
2510241
2510504
2510768
2511034
2511300
2511560
2511823
2512082
2512339
2512595
2512850
2513103
2513358
2513615
2513873
2514129
2514384
2514638
2514896
2515153
2515412
2515668
2515926
2516186
2516445
2516705
2516965
2517226
2517485
2517744
2518004
2518264
2518524
2518785
2519046
2519309
2519567
2519827
2520083
2520341
2520602
2520861
2521121
2521385
2521649
2521913
2522175
2522438
2522699
2522959
2523222
2523481
2523740
2523998
2524259
2524520
2524780
2525040
2525299
2525560
2525819
2526078
2526338
2526597
2526857
2527116
2527374
2527635
2527905
2528173
2528441
2528708
2528975
2529241
2529502
2529763
2530019
2530273
2530526
2530779
2531032
2531285
2531541
2531796
2532052
2532309
2532569
2532826
2533083
2533342
2533603
2533864
2534125
2534388
2534652
2534918
2535183
2535446
2535712
2535976
2536240
2536503
2536762
2537018
2537272
2537524
2537774
2538024
2538275
2538528
2538780
2539030
2539281
2539536
2539788
2540037
2540285
2540532
2540776
2541019
2541259
2541500
2541741
2541980
2542217
2542454
2542689
2542921
2543151
2543378
2543605
2543834
2544061
2544290
2544520
2544755
2544995
2545239
2545487
2545738
2545993
2546250
2546510
2546772
2547032
2547295
2547558
2547816
2548065
2548306
2548549
2548787
2549022
2549255
2549487
2549716
2549949
2550184
2550418
2550655
2550895
2551135
2551375
2551617
2552328
2552561
2552789
2553018
2553247
2553475
2553699
2553922
2554145
2554365
2554582
2554799
2555016
2555226
2555446
2555656
2555872
2556079
2556288
2556507
2556728
2556965
2557194
2557426
2557654
2557889
2558126
2558360
2558585
2558810
2559033
2559253
2559471
2559689
2559905
2560119
2560333
2560546
2560760
2560971
2561184
2561395
2561605
2561817
2562029
2562242
2562454
2562672
2562886
2563104
2563324
2563544
2563767
2563987
2564208
2564430
2564649
2564868
2565084
2565301
2565516
2565731
2565947
2566161
2566374
2566589
2566803
2567020
2567236
2567453
2567672
2567894
2568117
2568339
2568560
2568783
2569005
2569222
2569440
2569657
2569870
2570080
2570292
2570503
2570714
2570922
2571129
2571340
2571551
2571760
2571971
2572182
2572395
2572609
2572823
2573038
2573255
2573472
2573689
2573905
2574123
2574341
2574559
2574773
2574988
2575203
2575418
2575629
2575842
2576056
2576272
2576488
2576702
2576920
2577136
2577353
2577570
2577785
2578001
2578218
2578435
2578649
2578862
2579075
2579288
2579497
2579705
2579913
2580123
2580333
2580540
2580748
2580958
2581168
2581380
2581590
2581802
2582016
2582232
2582452
2582670
2582891
2583108
2583327
2583546
2583765
2583983
2584197
2584412
2584627
2584843
2585054
2585266
2585478
2585689
2585898
2586107
2586316
2586529
2586737
2586945
2587156
2587365
2587576
2587786
2587997
2588213
2588428
2588642
2588858
2589076
2589293
2589508
2589718
2589929
2590141
2590357
2590572
2590790
2591011
2591234
2591461
2591688
2591918
2592146
2592375
2592604
2592834
2593064
2593294
2593521
2593751
2593981
2594211
2594440
2594666
2594892
2595118
2595343
2595567
2595787
2596012
2596239
2596467
2596693
2596925
2597156
2597389
2597622
2597855
2598088
2598322
2598554
2598786
2599016
2599246
2599476
2599707
2599937
2600168
2600398
2600626
2600854
2601081
2601309
2601535
2601760
2601978
2602197
2602415
2602633
2602849
2603065
2603279
2603493
2603710
2603926
2604141
2604356
2604572
2604790
2605012
2605234
2605457
2605682
2605909
2606136
2606363
2606589
2606816
2607043
2607269
2607501
2607732
2607964
2608195
2608427
2608660
2608895
2609129
2609361
2609594
2609828
2610062
2610295
2610529
2610763
2610998
2611232
2611467
2611701
2611940
2612176
2612415
2612652
2612890
2613123
2613353
2613582
2613807
2614032
2614256
2614478
2614700
2614917
2615134
2615352
2615565
2615779
2615993
2616207
2616424
2616641
2616861
2617086
2617326
2617562
2617797
2618034
2618274
2618515
2618756
2618996
2619237
2619478
2619710
2619941
2620169
2620395
2620620
2620841
2621061
2621280
2621498
2621713
2621929
2622146
2622360
2622577
2622794
2623009
2623223
2623437
2623654
2623870
2624086
2624299
2624513
2624729
2624945
2625162
2625377
2625595
2625813
2626031
2626245
2626463
2626682
2626905
2627132
2627371
2627609
2627844
2628083
2628325
2628568
2628812
2629058
2629303
2629548
2629789
2630021
2630242
2630463
2630681
2630899
2631118
2631342
2631572
2631812
2632055
2632301
2632546
2632795
2633048
2633300
2633553
2633805
2634058
2634308
2634554
2634785
2635009
2635228
2635448
2635675
2635914
2636156
2636397
2636640
2636892
2637147
2637404
2637663
2637917
2638175
2638433
2638687
2638938
2639186
2639415
2639641
2639867
2640097
2640338
2640591
2640842
2641097
2641350
2641605
2641863
2642120
2642377
2642630
2642874
2643101
2643322
2643538
2643752
2643972
2644206
2644453
2644704
2644979
2645263
2645547
2645813
2646082
2646351
2646617
2646881
2647151
2647420
2647688
2647956
2648230
2648504
2648776
2649050
2649323
2649595
2649865
2650133
2650401
2650669
2650931
2651190
2651446
2651697
2651942
2652187
2652427
2652667
2652908
2653143
2653381
2653623
2653862
2654098
2654336
2654571
2654806
2655041
2655271
2655500
2655730
2655959
2656190
2656421
2656657
2656898
2657142
2657387
2657635
2657885
2658140
2658400
2658653
2658908
2659163
2659412
2659657
2659897
2660130
2660361
2660588
2660813
2661033
2661258
2661479
2661705
2661926
2662148
2662368
2662590
2662811
2663029
2663249
2663469
2663693
2663919
2664143
2664365
2664586
2664806
2665027
2665246
2665467
2665685
2665906
2666129
2666358
2666592
2666826
2667064
2667307
2667554
2667803
2668049
2668299
2668551
2668802
2669050
2669299
2669546
2669785
2670026
2670268
2670508
2670750
2670993
2671235
2671479
2671721
2671960
2672198
2672434
2672677
2672922
2673164
2673405
2673648
2673888
2674129
2674367
2674602
2674840
2675076
2675312
2675550
2675787
2676022
2676258
2676494
2676730
2676966
2677199
2677434
2677676
2677923
2678165
2678405
2678645
2678882
2679110
2679339
2679560
2679780
2679997
2680214
2680430
2680640
2680851
2681063
2681274
2681488
2681704
2681919
2682139
2682367
2682613
2682850
2683088
2683329
2683573
2683816
2684057
2684292
2684525
2684756
2684984
2685211
2685437
2685665
2685892
2686115
2686338
2686557
2686775
2686991
2687209
2687422
2687639
2687852
2688068
2688280
2688493
2688708
2688921
2689132
2689344
2689555
2689766
2689976
2690181
2690388
2690599
2690812
2691031
2691255
2691482
2691714
2691947
2692182
2692423
2692664
2692905
2693150
2693395
2693640
2693882
2694122
2694353
2694579
2694805
2695029
2695254
2695475
2695697
2695914
2696133
2696353
2696566
2696781
2696996
2697210
2697422
2697632
2697844
2698058
2698274
2698497
2698718
2698939
2699161
2699382
2699601
2699818
2700038
2700255
2700468
2700681
2700892
2701104
2701317
2701529
2701740
2701954
2702167
2702381
2702596
2702813
2703035
2703258
2703480
2703702
2703925
2704147
2704368
2704581
2704796
2705009
2705224
2705439
2705654
2705872
2706096
2706322
2706553
2706788
2707021
2707259
2707495
2707734
2707973
2708214
2708457
2708700
2708944
2709188
2709432
2709675
2709913
2710149
2710384
2710620
2710857
2711090
2711321
2711551
2711780
2712004
2712222
2712441
2712658
2712870
2713084
2713294
2713507
2713719
2713931
2714141
2714354
2714566
2714774
2714989
2715197
2715404
2715611
2715821
2716035
2716250
2716468
2716691
2716917
2717159
2717394
2717629
2717868
2718109
2718350
2718592
2718832
2719074
2719304
2719525
2719745
2719962
2720178
2720389
2720598
2720810
2721020
2721230
2721436
2721644
2721854
2722069
2722285
2722506
2722739
2722979
2723213
2723450
2723689
2723930
2724173
2724414
2724656
2724897
2725128
2725357
2725588
2725815
2726044
2726271
2726499
2726726
2726952
2727176
2727403
2727625
2727848
2728067
2728284
2728503
2728720
2728936
2729152
2729369
2729584
2729799
2730013
2730225
2730435
2730645
2730853
2731063
2731269
2731477
2731686
2731892
2732102
2732307
2732519
2732739
2732978
2733209
2733438
2733673
2733908
2734146
2734385
2734623
2734862
2735101
2735336
2735567
2735797
2736024
2736252
2736481
2736712
2736945
2737177
2737410
2737644
2737879
2738120
2738356
2738593
2738826
2739059
2739293
2739525
2739756
2739984
2740212
2740438
2740666
2740893
2741123
2741351
2741580
2741810
2742048
2742283
2742518
2742751
2742983
2743213
2743441
2743664
2743885
2744104
2744320
2744533
2744746
2744961
2745174
2745390
2745602
2745816
2746030
2746242
2746453
2746660
2746869
2747079
2747290
2747501
2747713
2747927
2748142
2748358
2748579
2748798
2749016
2749233
2749449
2749664
2749880
2750094
2750305
2750515
2750726
2750938
2751147
2751353
2751561
2751771
2751986
2752202
2752421
2752645
2752872
2753104
2753339
2753571
2753806
2754045
2754281
2754519
2754755
2754986
2755213
2755438
2755662
2755887
2756107
2756328
2756549
2756770
2756993
2757217
2757440
2757664
2757892
2758119
2758343
2758568
2758793
2759020
2759246
2759471
2759692
2759915
2760137
2760357
2760573
2760788
2761003
2761219
2761430
2761639
2761848
2762060
2762274
2762491
2762711
2762933
2763158
2763386
2763618
2763859
2764093
2764327
2764559
2764790
2765015
2765240
2765458
2765675
2765890
2766106
2766316
2766526
2766739
2766949
2767157
2767365
2767575
2767785
2767998
2768218
2768433
2768653
2768875
2769095
2769318
2769542
2769765
2769986
2770203
2770418
2770632
2770848
2771064
2771280
2771499
2771721
2771946
2772174
2772401
2772631
2772861
2773091
2773324
2773557
2773790
2774018
2774248
2774474
2774693
2774911
2775128
2775342
2775559
2775773
2775985
2776197
2776406
2776618
2776827
2777038
2777246
2777454
2777667
2777875
2778084
2778295
2778507
2778729
2778958
2779183
2779408
2779636
2779863
2780087
2780312
2780529
2780746
2780962
2781178
2781391
2781609
2781829
2782054
2782282
2782513
2782744
2782979
2783216
2783455
2783693
2783933
2784177
2784419
2784661
2784901
2785143
2785384
2785622
2785854
2786084
2786310
2786535
2786759
2786985
2787209
2787434
2787661
2787889
2788121
2788353
2788587
2788820
2789057
2789288
2789522
2789754
2789982
2790209
2790433
2790653
2790871
2791088
2791306
2791526
2791745
2791965
2792187
2792411
2792631
2792856
2793078
2793300
2793518
2793738
2793956
2794176
2794395
2794609
2794830
2795065
2795297
2795527
2795758
2795991
2796224
2796450
2796674
2796896
2797114
2797332
2797550
2797764
2797982
2798200
2798417
2798637
2798854
2799081
2799304
2799531
2799760
2800218
2800446
2800670
2800889
2801105
2801317
2801530
2801739
2801949
2802156
2802363
2802568
2802773
2802974
2803178
2803380
2803584
2803791
2803996
2804202
2804411
2804619
2804829
2805038
2805246
2805456
2805667
2805876
2806083
2806292
2806501
2806710
2806919
2807128
2807340
2807553
2807767
2807977
2808192
2808403
2808614
2808827
2809044
2809256
2809470
2809681
2809894
2810106
2810314
2810528
2810736
2810943
2811148
2811355
2811561
2811769
2811976
2812184
2812391
2812600
2812809
2813016
2813226
2813436
2813645
2814270
2814478
2814685
2814890
2815094
2815302
2815507
2815712
2815919
2816127
2816334
2816543
2816753
2816962
2817173
2817385
2817596
2817809
2818019
2818232
2818443
2818653
2818863
2819072
2819278
2819695
2819905
2820120
2820333
2820548
2820766
2820982
2821200
2821418
2821633
2821845
2822057
2822265
2822473
2822680
2822887
2823091
2823296
2823502
2823706
2823907
2824111
2824314
2824517
2824718
2824922
2825125
2825327
2825531
2825735
2825937
2826139
2826342
2826545
2826748
2826951
2827149
2827351
2827551
2827750
2827948
2828146
2828346
2828544
2828741
2828940
2829139
2829339
2829538
2829738
2829936
2830136
2830336
2830539
2830740
2830943
2831147
2831349
2831555
2831762
2831966
2832172
2832376
2832578
2832782
2832980
2833179
2833377
2833574
2833773
2833972
2834169
2834368
2834565
2834761
2834959
2835156
2835352
2835548
2835747
2835947
2836145
2836344
2836547
2836755
2836958
2837168
2837377
2837585
2837795
2838005
2838216
2838424
2838633
2838842
2839049
2839252
2839456
2839660
2839863
2840068
2840274
2840482
2840687
2840892
2841099
2841303
2841508
2841716
2841920
2842125
2842330
2842537
2842740
2842945
2843150
2843352
2843553
2843756
2843957
2844158
2844357
2844559
2844761
2844966
2845174
2845382
2845591
2845805
2846020
2846235
2846452
2846670
2846885
2847102
2847317
2847529
2847742
2847955
2848168
2848377
2848586
2848794
2849001
2849210
2849417
2849626
2849837
2850046
2850256
2850463
2850670
2850877
2851083
2851289
2851493
2851700
2851905
2852107
2852309
2852513
2852718
2852923
2853124
2853328
2853532
2853737
2853940
2854142
2854342
2854546
2854751
2854957
2855166
2855372
2855583
2855798
2856017
2856238
2856459
2856680
2856904
2857131
2857357
2857584
2857812
2858041
2858271
2858501
2858733
2858965
2859198
2859431
2859664
2859899
2860133
2860368
2860604
2860840
2861076
2861312
2861547
2861779
2862010
2862242
2862472
2862702
2862933
2863165
2863397
2863628
2863858
2864091
2864323
2864553
2864780
2865009
2865237
2865464
2865690
2865919
2866147
2866376
2866606
2866832
2867063
2867294
2867525
2867755
2867984
2868214
2868444
2868674
2868901
2869127
2869353
2869574
2869791
2870007
2870222
2870437
2870651
2870862
2871071
2871281
2871494
2871707
2871922
2872140
2872360
2872583
2872807
2873032
2873257
2873478
2873702
2873924
2874145
2874364
2874582
2874804
2875028
2875262
2875500
2875736
2875973
2876211
2876449
2876688
2876929
2877170
2877411
2877652
2877892
2878133
2878375
2878615
2878855
2879090
2879323
2879554
2879780
2880002
2880222
2880438
2880654
2880870
2881083
2881296
2881508
2881721
2881934
2882148
2882359
2882571
2882784
2882999
2883214
2883427
2883642
2883859
2884076
2884294
2884511
2884726
2884941
2885155
2885369
2885582
2885794
2885999
2886205
2886409
2886614
2886820
2887021
2887222
2887424
2887626
2887828
2888030
2888232
2888435
2888643
2888856
2889070
2889287
2889504
2889725
2889944
2890162
2890379
2890594
2890805
2891018
2891230
2891441
2891658
2891877
2892095
2892313
2892532
2892754
2892980
2893207
2893434
2893661
2893886
2894106
2894324
2894542
2894761
2894975
2895190
2895407
2895624
2895842
2896061
2896279
2896496
2896711
2896921
2897132
2897342
2897551
2897763
2897973
2898179
2898388
2898594
2898802
2899009
2899214
2899418
2899621
2899826
2900029
2900231
2900432
2900635
2900838
2901044
2901248
2901452
2901655
2901858
2902062
2902269
2902472
2902675
2902878
2903081
2903285
2903487
2903685
2903888
2904091
2904292
2904495
2904693
2904893
2905091
2905291
2905491
2905688
2905884
2906082
2906276
2906473
2906673
2906871
2907068
2907265
2907464
2907664
2907863
2908068
2908270
2908472
2908673
2908874
2909074
2909280
2909479
2909678
2909881
2910084
2910287
2910498
2910707
2910917
2911128
2911340
2911553
2911765
2911974
2912182
2912390
2912595
2912801
2913007
2913210
2913413
2913616
2913819
2914022
2914220
2914422
2914623
2914826
2915026
2915224
2915422
2915622
2915823
2916021
2916219
2916420
2916622
2916822
2917024
2917227
2917431
2917634
2917839
2918041
2918244
2918449
2918653
2918855
2919059
2919265
2919473
2919681
2919889
2920092
2920297
2920503
2920707
2920909
2921116
2921320
2921525
2921733
2921937
2922141
2922349
2922552
2922760
2922964
2923170
2923373
2923579
2923786
2923991
2924197
2924406
2924618
2924834
2925054
2925278
2925499
2925723
2925948
2926177
2926406
2926628
2926849
2927265
2927476
2927682
2927889
2928097
2928300
2928505
2928908
2929110
2929514
2929715
2929919
2930121
2930321
2930523
2930730
2930931
2931132
2931331
2931540
2931743
2931942
2932143
2932349
2932557
2932767
2932979
2933192
2933406
2933619
2933832
2934045
2934260
2934472
2934683
2934895
2935109
2935325
2935541
2935757
2935974
2936191
2936410
2936627
2936841
2937055
2937269
2937481
2937695
2937908
2938122
2938336
2938551
2938768
2938986
2939203
2939421
2939638
2939855
2940071
2940285
2940500
2940716
2940930
2941143
2941353
2941565
2941774
2941980
2942186
2942394
2942599
2942805
2943011
2943213
2943416
2943614
2943812
2944013
2944215
2944420
2944625
2944829
2945031
2945235
2945439
2945642
2945846
2946050
2946252
2946452
2946654
2946856
2947058
2947264
2947470
2947677
2947884
2948094
2948308
2948526
2948744
2948965
2949183
2949404
2949626
2949847
2950069
2950287
2950506
2950726
2950947
2951166
2951383
2951601
2951822
2952047
2952272
2952496
2952723
2952953
2953181
2953408
2953636
2953864
2954090
2954314
2954537
2954761
2954986
2955210
2955435
2955663
2955891
2956117
2956345
2956571
2956798
2957026
2957255
2957484
2957712
2957940
2958167
2958396
2958624
2958857
2959093
2959329
2959566
2959802
2960035
2960264
2960487
2960708
2960928
2961148
2961366
2961585
2961800
2962018
2962237
2962455
2962674
2962893
2963109
2963326
2963544
2963760
2963977
2964195
2964412
2964628
2964846
2965066
2965285
2965507
2965727
2965946
2966165
2966384
2966602
2966819
2967034
2967249
2967464
2967679
2967893
2968105
2968315
2968526
2968737
2968949
2969161
2969375
2969589
2969805
2970023
2970240
2970460
2970681
2970897
2971114
2971332
2971548
2971765
2971980
2972195
2972409
2972623
2972835
2973048
2973259
2973472
2973682
2973892
2974101
2974311
2974524
2974738
2974954
2975171
2975390
2975610
2975831
2976054
2976273
2976494
2976713
2976932
2977150
2977366
2977581
2977794
2978008
2978224
2978439
2978655
2978870
2979086
2979300
2979512
2979726
2979939
2980150
2980365
2980579
2980796
2981013
2981231
2981449
2981665
2981881
2982096
2982315
2982533
2982750
2982968
2983183
2983402
2983622
2983841
2984062
2984282
2984501
2984720
2984936
2985155
2985369
2985585
2985801
2986019
2986235
2986453
2986670
2986889
2987109
2987325
2987541
2987759
2987975
2988189
2988402
2988615
2988827
2989039
2989247
2989458
2989665
2989871
2990077
2990290
2990500
2990713
2990930
2991148
2991370
2991597
2991823
2992045
2992267
2992488
2992707
2992927
2993142
2993358
2993572
2993787
2994004
2994220
2994435
2994651
2994864
2995079
2995296
2995510
2995724
2995939
2996154
2996370
2996586
2996802
2997018
2997236
2997451
2997665
2997879
2998093
2998303
2998511
2998718
2998923
2999129
2999333
2999536
2999736
2999936
3000135
3000335
3000535
3000735
3000936
3001133
3001331
3001528
3001724
3001922
3002120
3002314
3002510
3002705
3002900
3003096
3003291
3003487
3003681
3003876
3004071
3004268
3004465
3004663
3004864
3005061
3005257
3005455
3005653
3005853
3006054
3006254
3006452
3006652
3006851
3007052
3007258
3007459
3007661
3007862
3008066
3008269
3008476
3008678
3008881
3009083
3009286
3009489
3009692
3009893
3010092
3010291
3010492
3010691
3010896
3011097
3011296
3011493
3011691
3011888
3012086
3012285
3012485
3012683
3012879
3013077
3013274
3013475
3013672
3013865
3014064
3014261
3014465
3014665
3014864
3015065
3015264
3015471
3015673
3015875
3016074
3016274
3016473
3016673
3016871
3017068
3017269
3017470
3017668
3017867
3018066
3018268
3018470
3018669
3018869
3019066
3019266
3019469
3019670
3019870
3020069
3020266
3020467
3020672
3020873
3021074
3021274
3021476
3021680
3021882
3022081
3022279
3022477
3022675
3022875
3023077
3023279
3023480
3023682
3023886
3024091
3024298
3024508
3024719
3024928
3025135
3025341
3025547
3025752
3025961
3026167
3026373
3026581
3026791
3027004
3027218
3027430
3027642
3027855
3028069
3028283
3028496
3028706
3028916
3029125
3029334
3029541
3029749
3029952
3030157
3030360
3030563
3030771
3030974
3031176
3031381
3031588
3031799
3032006
3032213
3032419
3032628
3032835
3033046
3033254
3033460
3033668
3033878
3034090
3034302
3034510
3034719
3034927
3035136
3035344
3035551
3035758
3035961
3036167
3036372
3036578
3036786
3036994
3037202
3037408
3037614
3037820
3038024
3038232
3038440
3038647
3038849
3039053
3039258
3039462
3039667
3039875
3040084
3040291
3040499
3040707
3040916
3041125
3041334
3041540
3041742
3041947
3042152
3042361
3042573
3042784
3042993
3043206
3043421
3043640
3043858
3044077
3044292
3044506
3044719
3044930
3045141
3045350
3045556
3045762
3045966
3046172
3046379
3046585
3046791
3046995
3047201
3047407
3047617
3047830
3048045
3048261
3048479
3048701
3048923
3049147
3049373
3049592
3049810
3050022
3050238
3050452
3050662
3050874
3051088
3051303
3051519
3051732
3051944
3052156
3052368
3052578
3052790
3053001
3053208
3053416
3053624
3053831
3054039
3054248
3054455
3054658
3054866
3055074
3055282
3055488
3055696
3055899
3056101
3056301
3056502
3056704
3056908
3057113
3057314
3057515
3057717
3057919
3058120
3058323
3058521
3058716
3058916
3059116
3059317
3059516
3059718
3059925
3060134
3060344
3060550
3060760
3060971
3061181
3061389
3061593
3061800
3062008
3062212
3062422
3062625
3062830
3063035
3063241
3063450
3063658
3063863
3064068
3064274
3064485
3064697
3064905
3065116
3065330
3065544
3065760
3065975
3066191
3066405
3066617
3066830
3067041
3067253
3067466
3067675
3067885
3068093
3068301
3068512
3068722
3068928
3069134
3069341
3069547
3069755
3069959
3070161
3070366
3070571
3070780
3070985
3071192
3071396
3071605
3071814
3072019
3072226
3072432
3072639
3072847
3073055
3073261
3073468
3073672
3073878
3074083
3074285
3074486
3074687
3074889
3075091
3075290
3075489
3075691
3075894
3076097
3076300
3076507
3076714
3076921
3077128
3077338
3077548
3077756
3077966
3078176
3078385
3078594
3078802
3079014
3079219
3079425
3079631
3079839
3080046
3080247
3080450
3080654
3080857
3081057
3081257
3081460
3081664
3081864
3082067
3082270
3082477
3082681
3082886
3083094
3083303
3083515
3083725
3083935
3084142
3084352
3084558
3084768
3084976
3085182
3085388
3085591
3085799
3086007
3086212
3086412
3086614
3086822
3087026
3087230
3087439
3087642
3087845
3088051
3088257
3088465
3088666
3088872
3089078
3089284
3089494
3089701
3089907
3090113
3090320
3090527
3090739
3090948
3091156
3091372
3091585
3091800
3092019
3092235
3092449
3092667
3092882
3093096
3093301
3093515
3093724
3093934
3094144
3094359
3094569
3094779
3094992
3095204
3095419
3095630
3095839
3096051
3096260
3096471
3096680
3096884
3097087
3097294
3097499
3097706
3097909
3098113
3098317
3098524
3098732
3098936
3099143
3099349
3099554
3099759
3099965
3100167
3100369
3100572
3100775
3100978
3101181
3101380
3101581
3101785
3101994
3102203
3102412
3102623
3102838
3103052
3103268
3103479
3103690
3103901
3104110
3104323
3104534
3104743
3104951
3105160
3105367
3105577
3105783
3105993
3106209
3106427
3106646
3106862
3107077
3107297
3107512
3107723
3107933
3108145
3108353
3108560
3108767
3108972
3109180
3109384
3109587
3109789
3109996
3110197
3110400
3110601
3110802
3111007
3111208
3111408
3111610
3111814
3112018
3112223
3112428
3112629
3112830
3113031
3113233
3113435
3113633
3113832
3114031
3114232
3114431
3114628
3114824
3115024
3115224
3115424
3115624
3115826
3116030
3116230
3116431
3116632
3116833
3117033
3117233
3117434
3117635
3117833
3118029
3118229
3118430
3118626
3118823
3119020
3119219
3119417
3119611
3119808
3120004
3120200
3120396
3120590
3120787
3120982
3121180
3121375
3121572
3121766
3121958
3122152
3122347
3122546
3122738
3122932
3123126
3123321
3123518
3123711
3123907
3124101
3124297
3124496
3124691
3124885
3125081
3125275
3125471
3125668
3125862
3126056
3126250
3126447
3126646
3126844
3127041
3127238
3127438
3127640
3127841
3128038
3128238
3128437
3128638
3128838
3129038
3129237
3129440
3129643
3129842
3130044
3130245
3130448
3130651
3130853
3131052
3131252
3131453
3131653
3131857
3132056
3132261
3132469
3132680
3132890
3133101
3133315
3133528
3133746
3133963
3134180
3134397
3134613
3134830
3135046
3135260
3135475
3135689
3135900
3136107
3136318
3136527
3136739
3136951
3137163
3137376
3137591
3137807
3138018
3138229
3138439
3138650
3138857
3139061
3139264
3139468
3139670
3139878
3140080
3140285
3140489
3140696
3140906
3141116
3141324
3141533
3141741
3141949
3142155
3142360
3142565
3142772
3142976
3143181
3143384
3143589
3143798
3144002
3144212
3144421
3144633
3144843
3145052
3145263
3145471
3145677
3145883
3146089
3146294
3146497
3146702
3146906
3147111
3147315
3147522
3147730
3147938
3148144
3148353
3148562
3148769
3148976
3149185
3149390
3149593
3149799
3150003
3150205
3150406
3150611
3150813
3151014
3151220
3151422
3151621
3151823
3152027
3152230
3152433
3152637
3152841
3153048
3153254
3153461
3153667
3153878
3154090
3154305
3154520
3154734
3154948
3155162
3155372
3155581
3155789
3155999
3156208
3156414
3156621
3156829
3157037
3157240
3157447
3157656
3157861
3158068
3158276
3158485
3158696
3158904
3159114
3159323
3159532
3159739
3159945
3160152
3160359
3160562
3160767
3160970
3161172
3161376
3161577
3161777
3161979
3162181
3162381
3162582
3162784
3162986
3163190
3163392
3163595
3163798
3164000
3164205
3164406
3164609
3164814
3165021
3165225
3165431
3165637
3165844
3166051
3166257
3166464
3166671
3166877
3167082
3167286
3167491
3167694
3167893
3168094
3168303
3168515
3168731
3168952
3169172
3169393
3169617
3169843
3170070
3170300
3170531
3170763
3170996
3171229
3171464
3171698
3171934
3172170
3172407
3172645
3172881
3173118
3173357
3173596
3173834
3174073
3174311
3174550
3174789
3175028
3175265
3175502
3175741
3175974
3176208
3176441
3176674
3176905
3177136
3177367
3177599
3177829
3178055
3178283
3178508
3178729
3178948
3179166
3179381
3179594
3179802
3180011
3180220
3180427
3180632
3180834
3181037
3181240
3181443
3181646
3181847
3182048
3182250
3182453
3182657
3182862
3183067
3183269
3183473
3183677
3183882
3184087
3184292
3184496
3184698
3184901
3185104
3185311
3185523
3185736
3185946
3186159
3186373
3186588
3186805
3187019
3187233
3187444
3187657
3187870
3188082
3188293
3188499
3188708
3188915
3189122
3189332
3189541
3189748
3189959
3190175
3190391
3190610
3190830
3191050
3191267
3191484
3191701
3191916
3192130
3192343
3192552
3192763
3192974
3193183
3193396
3193606
3193815
3194024
3194234
3194447
3194661
3194875
3195088
3195301
3195516
3195731
3195945
3196158
3196367
3196578
3196788
3196998
3197209
3197419
3197628
3197836
3198047
3198257
3198467
3198679
3198890
3199101
3199313
3199527
3199741
3199955
3200169
3200380
3200592
3200804
3201016
3201228
3201442
3201652
3201864
3202077
3202291
3202502
3202709
3202917
3203124
3203326
3203529
3203732
3203933
3204135
3204336
3204535
3204732
3204928
3205125
3205320
3205518
3205714
3205909
3206107
3206306
3206502
3206701
3206899
3207098
3207298
3207499
3207703
3207906
3208108
3208310
3208513
3208717
3208923
3209127
3209331
3209535
3209739
3209945
3210150
3210351
3210556
3210758
3210961
3211158
3211360
3211560
3211760
3211958
3212156
3212353
3212554
3212754
3212954
3213151
3213350
3213548
3213747
3213946
3214144
3214341
3214536
3214736
3214933
3215139
3215343
3215547
3215753
3215958
3216163
3216371
3216578
3216779
3216982
3217184
3217387
3217592
3217798
3218001
3218207
3218414
3218623
3218828
3219033
3219238
3219442
3219645
3219851
3220059
3220269
3220481
3220694
3220908
3221123
3221340
3221556
3221771
3221985
3222197
3222406
3222618
3222826
3223032
3223236
3223441
3223644
3223844
3224046
3224247
3224450
3224655
3224861
3225071
3225281
3225496
3225714
3225933
3226152
3226372
3226592
3226812
3227029
3227244
3227459
3227673
3227889
3228103
3228320
3228536
3228751
3228967
3229183
3229398
3229613
3229826
3230038
3230250
3230463
3230676
3230888
3231099
3231311
3231524
3231737
3231952
3232166
3232383
3232599
3232817
3233035
3233255
3233474
3233692
3233907
3234123
3234339
3234552
3234765
3234977
3235189
3235400
3235615
3235828
3236039
3236248
3236457
3236665
3236872
3237079
3237284
3237486
3237689
3237891
3238094
3238298
3238502
3238707
3238914
3239122
3239331
3239542
3239752
3239961
3240170
3240380
3240589
3240798
3241006
3241212
3241419
3241627
3241834
3242041
3242245
3242452
3242660
3242868
3243078
3243287
3243494
3243700
3243908
3244116
3244325
3244534
3244744
3244953
3245165
3245377
3245590
3245804
3246016
3246229
3246441
3246654
3246867
3247080
3247291
3247503
3247715
3247927
3248138
3248347
3248556
3248765
3248975
3249186
3249397
3249608
3249820
3250032
3250245
3250456
3250667
3250880
3251095
3251314
3251536
3251762
3251990
3252217
3252445
3252674
3252902
3253134
3253366
3253597
3253826
3254052
3254272
3254493
3254714
3254934
3255155
3255376
3255596
3255821
3256045
3256268
3256490
3256714
3256935
3257158
3257378
3257596
3257815
3258034
3258256
3258480
3258706
3258933
3259163
3259393
3259624
3259852
3260077
3260303
3260525
3260746
3260965
3261181
3261395
3261609
3261822
3262034
3262247
3262460
3262673
3262888
3263103
3263320
3263538
3263757
3263975
3264192
3264409
3264624
3264840
3265056
3265269
3265483
3265695
3265906
3266117
3266328
3266537
3266747
3266958
3267170
3267382
3267593
3267806
3268021
3268236
3268454
3268670
3268887
3269105
3269324
3269542
3269762
3269981
3270198
3270413
3270628
3270842
3271056
3271271
3271484
3271699
3271915
3272131
3272348
3272567
3272780
3272997
3273212
3273431
3273649
3273866
3274085
3274303
3274523
3274741
3274961
3275178
3275394
3275613
3275833
3276052
3276273
3276493
3276712
3276934
3277154
3277371
3277590
3277809
3278025
3278244
3278465
3278684
3278903
3279124
3279342
3279563
3279779
3279993
3280210
3280423
3280639
3280854
3281072
3281289
3281505
3281722
3281939
3282156
3282372
3282587
3282805
3283022
3283239
3283458
3283675
3283895
3284113
3284333
3284555
3284777
3284998
3285221
3285441
3285660
3285879
3286094
3286308
3286520
3286732
3286943
3287153
3287363
3287572
3287780
3287989
3288197
3288404
3288609
3288814
3289020
3289227
3289435
3289643
3289849
3290058
3290269
3290481
3290687
3290894
3291098
3291301
3291503
3291702
3291900
3292097
3292293
3292491
3292688
3292883
3293077
3293273
3293467
3293663
3293859
3294056
3294250
3294443
3294637
3294831
3295026
3295223
3295418
3295614
3295810
3296008
3296206
3296405
3296604
3296800
3296997
3297195
3297391
3297589
3297788
3297987
3298183
3298378
3298575
3298772
3298969
3299167
3299363
3299558
3299756
3299955
3300156
3300355
3300554
3300754
3300956
3301161
3301366
3301568
3301771
3301974
3302178
3302382
3302583
3302783
3302984
3303185
3303385
3303587
3303788
3303986
3304186
3304384
3304581
3304781
3304978
3305174
3305368
3305565
3305761
3305959
3306157
3306350
3306544
3306740
3306937
3307136
3307328
3307525
3307724
3307921
3308121
3308315
3308514
3308711
3308908
3309105
3309303
3309505
3309706
3309903
3310104
3310304
3310504
3310704
3310908
3311109
3311312
3311514
3311721
3311928
3312136
3312340
3312546
3312754
3312961
3313171
3313378
3313579
3313785
3313998
3314202
3314415
3314621
3314828
3315037
3315253
3315463
3315670
3315883
3316090
3316297
3316507
3316715
3316922
3317127
3317331
3317536
3317740
3317945
3318146
3318348
3318551
3318752
3318960
3319163
3319370
3319570
3319771
3319974
3320180
3320388
3320595
3320804
3321012
3321222
3321437
3321648
3321862
3322075
3322288
3322500
3322716
3322922
3323133
3323339
3323547
3323753
3323964
3324168
3324374
3324575
3324787
3324988
3325189
3325391
3325594
3325797
3326000
3326199
3326401
3326603
3326805
3327007
3327207
3327406
3327606
3327806
3328002
3328200
3328396
3328594
3328792
3328991
3329189
3329386
3329585
3329783
3329984
3330186
3330387
3330590
3330794
3331001
3331208
3331413
3331616
3331817
3332018
3332218
3332417
3332615
3332811
3333007
3333201
3333400
3333594
3333787
3333980
3334173
3334369
3334560
3334752
3334944
3335138
3335337
3335533
3335731
3335933
3336137
3336338
3336539
3336740
3336940
3337140
3337342
3337539
3337736
3337935
3338132
3338324
3338521
3338717
3338915
3339110
3339306
3339500
3339700
3339896
3340091
3340286
3340480
3340678
3340873
3341065
3341260
3341454
3341649
3341843
3342033
3342225
3342418
3342611
3342804
3342996
3343189
3343382
3343576
3343769
3343964
3344158
3344351
3344544
3344739
3344936
3345133
3345329
3345530
3345736
3345939
3346140
3346346
3346549
3346754
3346956
3347161
3347357
3347556
3347764
3347969
3348177
3348379
3348586
3348790
3348994
3349204
3349416
3349630
3349844
3350061
3350276
3350493
3350710
3350929
3351148
3351366
3351586
3351805
3352025
3352243
3352456
3352671
3352886
3353096
3353306
3353518
3353730
3353939
3354148
3354359
3354571
3354779
3354991
3355202
3355411
3355620
3355833
3356046
3356257
3356472
3356688
3356903
3357121
3357340
3357559
3357780
3358001
3358225
3358451
3358678
3358904
3359133
3359362
3359593
3359824
3360055
3360289
3360522
3360755
3360988
3361222
3361454
3361686
3361920
3362152
3362384
3362616
3362847
3363076
3363305
3363531
3363758
3363985
3364213
3364441
3364668
3364894
3365120
3365340
3365556
3365770
3365981
3366190
3366398
3366602
3366809
3367015
3367222
3367429
3367638
3367849
3368059
3368266
3368475
3368685
3368895
3369104
3369311
3369520
3369729
3369941
3370151
3370359
3370567
3370780
3370990
3371200
3371412
3371628
3371849
3372071
3372295
3372520
3372749
3372977
3373206
3373436
3373666
3373896
3374123
3374349
3374575
3374800
3375024
3375471
3375689
3375905
3376118
3376327
3376539
3376751
3376961
3377174
3377383
3377592
3377801
3378010
3378217
3378423
3378627
3378830
3379033
3379231
3379430
3379628
3379825
3380022
3380220
3380417
3380613
3380809
3381005
3381201
3381398
3381596
3381796
3381995
3382193
3382392
3382593
3382798
3383003
3383209
3383414
3383620
3383829
3384036
3384240
3384446
3384649
3384854
3385060
3385267
3385473
3385680
3385887
3386092
3386295
3386503
3386713
3386929
3387148
3387369
3387589
3387810
3388033
3388258
3388484
3388711
3388938
3389168
3389397
3389626
3389855
3390085
3390315
3390544
3390774
3391006
3391239
3391473
3391706
3391943
3392180
3392416
3392652
3392889
3393125
3393359
3393593
3393824
3394058
3394291
3394522
3394755
3394990
3395226
3395459
3395694
3395928
3396161
3396397
3396634
3396868
3397100
3397335
3397570
3397803
3398033
3398264
3398498
3398731
3398963
3399200
3399438
3399676
3399914
3400155
3400394
3400633
3400874
3401117
3401357
3401599
3401842
3402085
3402326
3402568
3402810
3403052
3403293
3403535
3403776
3404019
3404259
3404500
3404737
3404979
3405222
3405464
3405707
3405950
3406192
3406436
3406681
3406926
3407170
3407416
3407661
3407907
3408151
3408397
3408641
3408880
3409115
3409344
3409574
3409802
3410026
3410245
3410464
3410684
3410902
3411121
3411344
3411574
3411811
3412049
3412289
3412529
3412770
3413011
3413254
3413498
3413743
3413987
3414233
3414480
3414726
3414972
3415218
3415465
3415711
3415952
3416191
3416434
3416679
3416924
3417170
3417416
3417666
3417913
3418160
3418407
3418654
3418901
3419148
3419393
3419635
3419877
3420118
3420360
3420600
3420844
3421088
3421334
3421583
3421834
3422082
3422332
3422583
3422834
3423084
3423337
3423590
3423842
3424093
3424346
3424597
3424842
3425084
3425324
3425565
3425811
3426057
3426301
3426545
3426793
3427037
3427281
3427525
3427772
3428016
3428260
3428503
3428749
3428989
3429231
3429474
3429719
3429963
3430209
3430457
3430707
3430957
3431207
3431458
3431707
3431957
3432204
3432451
3432699
3432946
3433192
3433437
3433682
3433928
3434176
3434425
3434674
3434925
3435180
3435434
3435686
3435936
3436184
3436430
3436671
3436911
3437152
3437395
3437637
3437881
3438126
3438378
3438629
3438880
3439132
3439384
3439637
3439889
3440142
3440394
3440650
3440903
3441158
3441411
3441666
3441920
3442173
3442426
3442677
3442927
3443177
3443425
3443671
3443914
3444153
3444390
3444627
3444864
3445103
3445342
3445580
3445819
3446058
3446301
3446547
3446793
3447040
3447292
3447548
3447803
3448056
3448309
3448561
3448817
3449070
3449322
3449576
3449834
3450089
3450341
3450592
3450844
3451098
3451350
3451606
3451862
3452120
3452378
3452636
3452895
3453154
3453411
3453670
3453930
3454189
3454449
3454707
3454963
3455213
3455464
3455713
3455962
3456209
3456459
3456709
3456962
3457216
3457468
3457720
3457971
3458220
3458470
3458724
3458976
3459225
3459475
3459726
3459982
3460238
3460492
3460746
3461002
3461260
3461519
3461777
3462035
3462295
3462550
3462802
3463052
3463302
3463549
3463796
3464047
3464298
3464557
3464814
3465070
3465327
3465584
3465842
3466096
3466351
3466606
3466866
3467122
3467374
3467626
3467881
3468137
3468392
3468646
3468900
3469156
3469411
3469663
3469916
3470169
3470422
3470674
3470924
3471175
3471426
3471679
3471927
3472176
3472424
3472671
3472918
3473165
3473413
3473659
3473909
3474161
3474414
3474665
3474918
3475174
3475434
3475693
3475952
3476211
3476470
3476729
3476987
3477245
3477502
3477758
3478013
3478266
3478518
3478772
3479027
3479280
3479534
3479789
3480047
3480300
3480552
3480803
3481058
3481313
3481569
3481824
3482080
3482341
3482601
3482859
3483118
3483377
3483633
3483889
3484144
3484398
3484651
3484903
3485158
3485412
3485666
3485919
3486172
3486428
3486681
3486935
3487189
3487445
3487700
3487957
3488215
3488475
3488736
3488994
3489253
3489515
3489779
3490039
3490299
3490558
3490820
3491081
3491339
3491597
3491855
3492116
3492377
3492633
3492889
3493149
3493412
3493672
3493931
3494190
3494450
3494709
3494967
3495226
3495484
3495742
3495998
3496254
3496511
3496767
3497026
3497288
3497546
3497806
3498065
3498325
3498586
3498844
3499103
3499364
3499624
3499887
3500148
3500407
3500668
3500928
3501191
3501451
3501710
3501968
3502228
3502490
3502747
3503007
3503267
3503530
3503791
3504053
3504318
3504585
3504851
3505114
3505377
3505640
3505905
3506167
3506428
3506692
3506955
3507220
3507483
3507748
3508013
3508279
3508546
3508814
3509081
3509349
3509618
3509886
3510150
3510415
3510681
3510948
3511211
3511473
3511733
3511996
3512260
3512521
3512783
3513046
3513314
3513582
3513848
3514113
3514377
3514642
3514906
3515164
3515422
3515681
3515944
3516208
3516470
3516734
3516997
3517260
3517522
3517785
3518047
3518314
3518582
3518846
3519113
3519377
3519643
3519908
3520171
3520436
3520700
3520968
3521239
3521507
3521777
3522045
3522314
3522580
3522846
3523112
3523374
3523633
3523894
3524152
3524410
3524668
3524925
3525184
3525442
3525702
3525965
3526230
3526495
3526764
3527037
3527305
3527572
3527843
3528111
3528378
3528642
3528907
3529170
3529439
3529708
3529971
3530237
3530503
3530772
3531039
3531305
3531570
3531836
3532104
3532367
3532632
3532899
3533169
3533436
3533701
3533966
3534229
3534492
3534753
3535011
3535270
3535531
3535788
3536042
3536300
3536558
3536818
3537079
3537338
3537596
3537856
3538114
3538373
3538631
3538887
3539144
3539401
3539658
3539914
3540168
3540423
3540683
3540943
3541201
3541459
3541716
3541977
3542237
3542494
3542751
3543009
3543272
3543537
3543797
3544062
3544329
3544598
3544864
3545129
3545395
3545660
3545925
3546186
3546448
3546710
3546972
3547238
3547502
3547766
3548031
3548295
3548558
3548817
3549076
3549335
3549595
3549857
3550118
3550375
3550634
3550894
3551153
3551410
3551665
3551921
3552177
3552435
3552692
3552954
3553214
3553477
3553742
3554007
3554271
3554539
3554809
3555081
3555347
3555617
3555883
3556152
3556421
3556687
3556957
3557221
3557487
3557748
3558011
3558275
3558542
3558811
3559075
3559340
3559607
3559876
3560145
3560410
3560678
3560944
3561212
3561481
3561748
3562015
3562284
3562553
3562820
3563087
3563351
3563614
3563877
3564140
3564405
3564672
3564937
3565201
3565463
3565723
3565984
3566245
3566504
3566761
3567020
3567278
3567539
3567800
3568060
3568322
3568587
3568858
3569133
3569400
3569670
3569935
3570204
3570470
3570733
3570995
3571258
3571523
3571787
3572051
3572317
3572584
3572849
3573112
3573376
3573636
3573895
3574152
3574410
3574665
3574921
3575174
3575425
3575676
3575926
3576176
3576425
3576675
3576924
3577174
3577427
3577677
3577929
3578180
3578433
3578689
3578944
3579201
3579456
3579711
3579968
3580225
3580481
3580737
3580993
3581250
3581508
3581764
3582019
3582275
3582532
3582791
3583052
3583316
3583579
3583843
3584108
3584376
3584641
3584907
3585173
3585440
3585704
3585962
3586220
3586475
3586733
3586990
3587247
3587506
3587767
3588030
3588295
3588560
3588827
3589091
3589356
3589619
3589880
3590139
3590396
3590655
3590914
3591172
3591430
3591687
3591944
3592202
3592459
3592715
3592972
3593229
3593489
3593749
3594008
3594268
3594526
3594786
3595044
3595299
3595555
3595811
3596067
3596324
3596580
3596838
3597096
3597357
3597618
3597882
3598150
3598419
3598687
3598952
3599216
3599481
3599744
3600008
3600269
3600529
3600789
3601051
3601313
3601576
3601839
3602104
3602368
3602633
3602898
3603160
3603422
3603686
3603953
3604218
3604483
3604749
3605015
3605283
3605551
3605816
3606080
3606343
3606604
3606866
3607125
3607386
3607646
3607908
3608166
3608423
3608679
3608936
3609202
3609473
3609743
3610011
3610283
3610557
3610831
3611102
3611377
3611653
3611926
3612198
3612474
3612750
3613022
3613293
3613559
3613826
3614091
3614354
3614614
3614876
3615137
3615395
3615650
3615902
3616155
3616407
3616659
3616910
3617159
3617409
3617660
3617909
3618161
3618413
3618669
3618925
3619183
3619439
3619697
3619951
3620207
3620463
3620718
3620973
3621225
3621479
3621733
3621989
3622241
3622490
3622738
3622986
3623228
3623470
3623711
3623953
3624197
3624441
3624693
3624953
3625221
3625487
3625752
3626020
3626292
3626562
3626832
3627106
3627380
3627652
3627919
3628188
3628455
3628724
3628994
3629265
3629532
3629806
3630080
3630354
3630631
3630906
3631181
3631454
3631725
3631995
3632265
3632532
3632798
3633062
3633326
3633589
3633852
3634115
3634381
3634652
3634922
3635198
3635473
3635750
3636026
3636303
3636579
3636857
3637133
3637405
3637679
3637954
3638236
3638513
3638789
3639064
3639342
3639623
3639898
3640177
3640452
3640728
3640997
3641265
3641532
3641803
3642075
3642344
3642615
3642888
3643163
3643436
3643709
3643980
3644252
3644525
3644796
3645068
3645340
3645612
3645882
3646152
3646422
3646691
3646963
3647230
3647499
3647767
3648040
3648313
3648583
3648858
3649134
3649419
3649698
3649977
3650259
3650543
3650826
3651106
3651392
3651676
3651957
3652233
3652507
3652784
3653065
3653340
3653622
3653901
3654186
3654465
3654742
3655019
3655296
3655575
3655850
3656125
3656400
3656675
3656948
3657221
3657491
3657765
3658040
3658312
3658584
3658855
3659129
3659403
3659674
3659950
3660227
3660504
3660784
3661062
3661340
3661616
3661893
3662167
3662442
3662714
3662991
3663268
3663540
3663813
3664088
3664364
3664636
3664909
3665183
3665459
3665731
3666008
3666283
3666560
3666835
3667110
3667387
3667668
3667948
3668225
3668504
3668780
3669057
3669329
3669601
3669872
3670145
3670416
3670689
3670959
3671233
3671509
3671784
3672059
3672333
3672607
3672879
3673151
3673423
3673689
3673958
3674223
3674486
3674751
3675015
3675280
3675540
3675800
3676060
3676321
3676581
3676843
3677108
3677374
3677644
3677911
3678179
3678448
3678717
3678986
3679252
3679515
3679780
3680049
3680324
3680594
3680868
3681141
3681415
3681689
3681961
3682235
3682508
3682784
3683057
3683329
3683601
3683869
3684141
3684408
3684677
3684945
3685217
3685486
3685756
3686025
3686294
3686560
3686821
3687078
3687331
3687580
3687826
3688067
3688306
3688541
3688773
3689004
3689233
3689458
3689683
3689909
3690136
3690369
3690607
3690842
3691079
3691314
3691550
3691789
3692032
3692284
3692542
3692805
3693073
3693343
3693614
3693884
3694158
3694434
3694709
3694985
3695257
3695531
3695799
3696069
3696340
3696605
3696875
3697145
3697417
3697689
3697956
3698229
3698502
3698773
3699044
3699318
3699591
3699868
3700142
3700419
3700696
3700974
3701252
3701528
3701804
3702079
3702351
3702623
3702891
3703160
3703431
3703700
3703968
3704237
3704502
3704768
3705033
3705296
3705562
3705831
3706105
3706380
3706655
3706933
3707210
3707484
3707756
3708027
3708298
3708570
3708837
3709107
3709377
3709649
3709920
3710189
3710459
3710734
3711007
3711280
3711554
3711828
3712105
3712376
3712647
3712921
3713196
3713477
3713754
3714033
3714313
3714592
3714872
3715154
3715438
3715721
3716004
3716284
3716565
3716846
3717128
3717406
3717683
3717962
3718240
3718520
3718797
3719074
3719356
3719635
3719914
3720192
3720473
3720754
3721035
3721313
3721595
3721879
3722163
3722445
3722733
3723019
3723305
3723586
3723867
3724151
3724432
3724712
3724985
3725263
3725539
3725821
3726096
3726371
3726646
3726923
3727197
3727472
3727748
3728028
3728306
3728583
3728864
3729143
3729424
3729705
3729985
3730267
3730549
3730829
3731109
3731387
3731666
3731947
3732229
3732508
3732789
3733070
3733350
3733627
3733905
3734185
3734466
3734742
3735018
3735297
3735576
3735854
3736130
3736411
3736692
3736978
3737261
3737541
3737826
3738110
3738394
3738676
3738960
3739245
3739530
3739813
3740096
3740382
3740668
3740953
3741235
3741523
3741809
3742094
3742379
3742663
3742950
3743235
3743520
3743800
3744083
3744368
3744649
3744927
3745204
3745483
3745760
3746035
3746307
3746581
3746861
3747144
3747430
3747709
3747991
3748275
3748559
3748842
3749121
3749405
3749691
3749977
3750259
3750541
3750828
3751117
3751406
3751692
3751985
3752278
3752571
3752860
3753148
3753440
3753732
3754020
3754307
3754599
3754890
3755179
3755465
3755750
3756032
3756316
3756596
3756871
3757149
3757427
3757705
3757981
3758257
3758535
3758814
3759092
3759368
3759644
3759919
3760197
3760474
3760749
3761024
3761303
3761581
3761861
3762136
3762415
3762697
3762977
3763255
3763533
3763818
3764103
3764389
3764672
3764959
3765245
3765532
3765816
3766098
3766385
3766671
3766958
3767240
3767525
3767813
3768100
3768382
3768664
3768952
3769244
3769532
3769820
3770107
3770397
3770686
3770972
3771256
3771545
3771833
3772122
3772412
3772700
3772991
3773281
3773571
3773853
3774136
3774419
3774704
3774984
3775258
3775534
3775810
3776086
3776359
3776631
3776907
3777191
3777481
3777768
3778054
3778343
3778632
3778921
3779205
3779495
3779784
3780071
3780352
3780630
3780910
3781191
3781473
3781750
3782026
3782305
3782583
3782862
3783135
3783415
3783689
3783964
3784235
3784503
3784774
3785047
3785322
3785596
3785870
3786145
3786421
3786696
3786968
3787242
3787517
3787794
3788070
3788344
3788621
3788898
3789180
3789459
3789733
3790009
3790287
3790569
3790861
3791145
3791433
3791722
3792015
3792311
3792603
3792899
3793196
3793492
3793786
3794084
3794381
3794677
3794970
3795266
3795561
3795857
3796151
3796444
3796741
3797040
3797336
3797630
3797928
3798224
3798519
3798810
3799104
3799388
3799670
3799949
3800227
3800509
3800789
3801071
3801356
3801641
3801928
3802215
3802501
3802783
3803072
3803360
3803646
3803924
3804201
3804479
3804757
3805040
3805317
3805598
3805881
3806167
3806449
3806728
3807009
3807292
3807574
3807853
3808141
3808431
3808721
3809006
3809291
3809578
3809870
3810155
3810441
3810730
3811018
3811307
3811593
3811884
3812171
3812460
3812747
3813037
3813329
3813619
3813910
3814197
3814483
3814769
3815053
3815337
3815616
3815896
3816177
3816462
3816748
3817027
3817308
3817589
3817869
3818149
3818425
3818704
3818988
3819276
3819560
3819842
3820132
3820421
3820712
3820996
3821282
3821570
3821864
3822157
3822449
3822739
3823035
3823330
3823625
3823916
3824211
3824505
3824798
3825087
3825376
3825671
3825966
3826263
3826555
3826853
3827149
3827444
3827738
3828031
3828328
3828624
3828920
3829214
3829508
3829804
3830100
3830393
3830683
3830971
3831260
3831552
3831842
3832131
3832423
3832719
3833014
3833305
3833600
3833895
3834190
3834482
3834773
3835069
3835362
3835655
3835943
3836236
3836526
3836819
3837108
3837397
3837689
3837982
3838274
3838562
3838857
3839152
3839447
3839740
3840031
3840327
3840623
3840918
3841212
3841508
3841803
3842097
3842390
3842678
3842966
3843253
3843537
3843821
3844104
3844390
3844676
3844962
3845248
3845533
3845818
3846106
3846393
3846675
3846957
3847242
3847532
3847821
3848104
3848390
3848684
3848977
3849267
3849549
3849837
3850122
3850415
3850707
3850994
3851286
3851578
3851871
3852160
3852449
3852741
3853034
3853325
3853614
3853905
3854196
3854486
3854773
3855058
3855343
3855634
3855925
3856211
3856497
3856786
3857075
3857366
3857652
3857944
3858240
3858534
3858824
3859112
3859397
3859672
3859938
3860200
3860458
3860713
3860964
3861214
3861461
3861707
3861950
3862188
3862423
3862656
3862887
3863118
3863348
3863577
3863804
3864029
3864254
3864479
3864703
3864926
3865153
3865379
3865612
3865848
3866086
3866329
3866572
3866819
3867064
3867309
3867550
3867790
3868028
3868265
3868504
3868746
3868992
3869241
3869492
3869745
3870000
3870256
3870512
3870768
3871022
3871279
3871537
3871798
3872061
3872329
3872599
3872871
3873144
3873418
3873692
3873971
3874251
3874530
3874807
3875088
3875369
3875651
3875932
3876214
3876500
3876785
3877069
3877351
3877637
3877923
3878209
3878493
3878778
3879067
3879357
3879649
3879937
3880221
3880510
3880791
3881080
3881368
3881655
3881938
3882226
3882513
3882797
3883074
3883348
3883624
3883899
3884170
3884441
3884713
3884988
3885260
3885535
3885812
3886087
3886362
3886637
3886910
3887181
3887453
3887733
3888020
3888299
3888581
3888863
3889143
3889418
3889693
3889962
3890224
3890485
3890743
3890999
3891254
3891510
3891763
3892016
3892269
3892520
3892770
3893021
3893274
3893525
3893777
3894030
3894282
3894531
3894781
3895031
3895281
3895533
3895788
3896046
3896308
3896572
3896839
3897111
3897382
3897656
3897935
3898213
3898495
3898778
3899064
3899350
3899640
3899929
3900217
3900503
3900790
3901076
3901357
3901640
3901921
3902200
3902481
3902761
3903040
3903321
3903605
3903887
3904171
3904458
3904745
3905032
3905322
3905611
3905899
3906186
3906477
3906764
3907053
3907341
3907626
3907909
3908185
3908458
3908731
3909003
3909281
3909559
3909843
3910126
3910409
3910691
3910977
3911259
3911548
3911835
3912122
3912410
3912698
3912990
3913280
3913570
3913857
3914144
3914433
3914719
3915004
3915287
3915571
3915857
3916142
3916428
3916713
3916997
3917285
3917573
3917860
3918146
3918437
3918727
3919016
3919302
3919588
3919878
3920168
3920457
3920744
3921033
3921325
3921615
3921906
3922194
3922483
3922775
3923065
3923355
3923641
3923931
3924220
3924509
3924796
3925080
3925366
3925652
3925937
3926223
3926509
3926797
3927083
3927370
3927655
3927941
3928230
3928516
3928799
3929076
3929346
3929616
3929887
3930160
3930436
3930713
3930998
3931277
3931556
3931836
3932118
3932400
3932680
3932957
3933238
3933511
3933780
3934047
3934308
3934559
3934808
3935055
3935305
3935556
3935810
3936071
3936335
3936604
3936874
3937144
3937416
3937689
3937958
3938225
3938493
3938763
3939036
3939309
3939584
3939860
3940136
3940411
3940683
3940955
3941224
3941492
3941761
3942030
3942304
3942581
3942867
3943150
3943435
3943719
3944010
3944298
3944585
3944877
3945168
3945461
3945748
3946044
3946340
3946636
3946926
3947226
3947524
3947819
3948115
3948414
3948712
3949004
3949303
3949600
3949893
3950184
3950478
3950773
3951063
3951354
3951648
3951942
3952230
3952526
3952818
3953109
3953398
3953688
3953975
3954261
3954547
3954836
3955128
3955419
3955708
3956001
3956293
3956583
3956873
3957166
3957458
3957747
3958030
3958313
3958595
3958876
3959153
3959443
3959738
3960028
3960314
3960608
3960902
3961195
3961485
3961781
3962076
3962367
3962662
3962957
3963251
3963540
3963835
3964125
3964401
3964679
3964949
3965217
3965484
3965757
3966037
3966319
3966608
3966895
3967181
3967463
3967747
3968026
3968305
3968582
3968858
3969136
3969416
3969695
3969974
3970253
3970533
3970811
3971089
3971368
3971644
3971920
3972194
3972470
3972752
3973030
3973314
3973597
3973881
3974162
3974445
3974730
3975015
3975297
3975582
3975875
3976172
3976460
3976753
3977046
3977338
3977624
3977917
3978204
3978492
3978777
3979064
3979351
3979641
3979926
3980209
3980487
3980761
3981028
3981295
3981559
3981821
3982084
3982345
3982613
3982884
3983158
3983432
3983707
3983983
3984259
3984532
3984804
3985073
3985343
3985615
3985886
3986162
3986437
3986713
3986987
3987261
3987531
3987800
3988063
3988321
3988573
3988822
3989068
3989314
3989560
3989806
3990054
3990302
3990553
3990805
3991060
3991316
3991577
3991840
3992106
3992375
3992646
3992922
3993203
3993484
3993768
3994055
3994342
3994630
3994919
3995208
3995496
3995783
3996071
3996356
3996633
3996911
3997189
3997466
3997743
3998019
3998296
3998574
3998851
3999127
3999401
3999675
3999949
4000222
4000494
4000763
4001032
4001303
4001576
4001852
4002126
4002405
4002690
4002971
4003252
4003534
4003818
4004103
4004387
4004669
4004955
4005240
4005527
4005810
4006098
