Mammal: rabbit
Fs: 1000
Integration: ECG

31
291
555
831
1117
1399
1675
1954
2242
2529
2808
3082
3369
3659
3942
4225
4506
4795
5074
5353
5628
5909
6192
6473
6757
7037
7325
7607
7889
8170
8446
8722
9002
9278
9551
9829
10105
10377
10652
10928
11203
11473
11745
12017
12289
12568
12837
13102
13363
13615
13864
14112
14357
14603
14855
15111
15371
15635
15902
16178
16460
16758
17050
17343
17637
17928
18221
18511
18794
19082
19375
19677
19975
20281
20577
20864
21152
21445
21741
22018
22302
22584
22871
23152
23427
23708
23991
24271
24544
24822
25104
25379
25647
25923
26191
26458
26727
26993
27260
27524
27789
28059
28331
28598
28867
29137
29405
29675
29943
30218
30496
30766
31043
31322
31602
31880
32156
32441
32718
32998
33276
33563
33840
34114
34392
34673
34950
35227
35511
35791
36070
36348
36630
36904
37175
37455
37730
38002
38271
38550
38825
39102
39379
39653
39927
40215
40491
40772
41052
41326
41600
41874
42145
42418
42701
42977
43255
43535
43821
44098
44374
44651
44923
45190
45460
45729
45988
46246
46511
46769
47025
47275
47523
47777
48033
48297
48558
48819
49079
49353
49627
49901
50170
50440
50717
50995
51273
51548
51825
52107
52393
52667
52951
53236
53528
53826
54107
54403
54691
54978
55258
55541
55822
56099
56375
56660
56946
57239
57527
57815
58101
58383
58664
58949
59232
59518
59798
60078
60358
60641
60922
61204
61494
61777
62065
62345
62626
62906
63187
63464
63742
64022
64300
64579
64855
65135
65416
65694
65972
66257
66540
66824
67103
67383
67667
67951
68233
68517
68804
69090
69376
69653
69939
70220
70499
70777
71060
71343
71626
71904
72180
72457
72738
73019
73292
73567
73846
74121
74392
74667
74940
75216
75498
75778
76064
76349
76631
76916
77206
77507
77804
78087
78386
78674
78965
79252
79539
79826
80113
80398
80681
80969
81258
81539
81821
82106
82386
82666
82944
83222
83498
83773
84045
84329
84608
84899
85183
85469
85758
86044
86327
86603
86883
87160
87439
87716
87991
88274
88557
88836
89117
89396
89670
89954
90230
90514
90796
91077
91359
91642
91922
92206
92489
92771
93053
93330
93611
93888
94171
94458
94742
95019
95305
95589
95873
96152
96433
96714
96993
97271
97550
97829
98111
98392
98675
98955
99233
99513
99792
100067
100351
100637
100919
101200
101483
101767
102061
102345
102629
102917
103207
103497
103778
104061
104353
104633
104915
105198
105484
105764
106040
106319
106602
106885
107169
107452
107730
108014
108294
108571
108852
109139
109425
109718
110001
110283
110567
110853
111138
111419
111712
112013
112296
112577
112858
113142
113435
113716
114002
114294
114592
114883
115176
115467
115763
116049
116335
116621
116904
117187
117464
117736
118016
118291
118566
118843
119116
119393
119669
119949
120224
120501
120779
121063
121339
121618
121896
122175
122453
122728
123003
123281
123562
123841
124118
124395
124682
124972
125258
125542
125832
126117
126404
126685
126972
127259
127547
127833
128116
128400
128682
128972
129248
129524
129803
130083
130363
130639
130916
131205
131494
131792
132081
132381
132679
132974
133260
133551
133842
134132
134418
134704
134995
135282
135571
135857
136144
136428
136709
136993
137274
137554
137839
138124
138406
138693
138983
139273
139558
139839
140124
140414
140706
140987
141271
141560
141850
142133
142415
142697
142984
143269
143551
143829
144114
144398
144683
144969
145252
145544
145829
146116
146392
146675
146960
147241
147523
147796
148079
148361
148643
148928
149209
149493
149774
150051
150326
150601
150877
151153
151428
151699
151980
152268
152546
152825
153109
153401
153686
153972
154252
154535
154820
155110
155396
155679
155964
156257
156543
156824
157107
157386
157669
157944
158223
158501
158780
159058
159327
159596
159868
160143
160417
160687
160954
161223
161497
161768
162037
162306
162577
162852
163124
163390
163658
163933
164203
164469
164734
165001
165270
165542
165816
166084
166356
166628
166901
167168
167441
167721
167997
168275
168552
168833
169114
169398
169678
169953
170236
170517
170798
171076
171353
171633
171916
172193
172468
172743
173024
173303
173578
173851
174128
174412
174694
174971
175248
175527
175813
176092
176374
176657
176937
177217
177493
177775
178056
178334
178610
178887
179165
179441
179716
179993
180277
180560
180837
181115
181394
181682
181959
182238
182514
182790
183069
183339
183618
183902
184184
184465
184751
185037
185325
185610
185897
186185
186473
186762
187047
187336
187630
187915
188200
188484
188768
189059
189342
189627
189910
190200
190491
190771
191056
191339
191621
191900
192178
192462
192743
193025
193304
193584
193865
194145
194421
194698
194975
195258
195534
195809
196090
196370
196651
196930
197210
197496
197779
198058
198341
198623
198907
199189
199468
199748
200028
200313
200592
200872
201155
201440
201719
201996
202277
202562
202856
203141
203424
203710
203994
204282
204564
204849
205135
205426
205719
206006
206299
206586
206872
207155
207441
207725
208008
208288
208563
208840
209120
209403
209686
209970
210253
210539
210821
211100
211380
211666
211946
212229
212509
212790
213071
213348
213627
213909
214196
214485
214775
215062
215349
215639
215930
216219
216508
216804
217097
217386
217675
217971
218258
218544
218827
219113
219399
219689
219974
220258
220540
220821
221102
221380
221658
221943
222229
222512
222795
223087
223374
223658
223940
224223
224513
224804
225098
225383
225676
225962
226258
226541
226830
227120
227412
227700
227987
228284
228570
228858
229146
229435
229725
230018
230306
230596
230888
231173
231456
231741
232029
232322
232610
232896
233184
233467
233751
234037
234319
234605
234895
235189
235483
235779
236076
236376
236667
236953
237243
237531
237821
238101
238382
238665
238950
239238
239520
239804
240088
240368
240646
240924
241208
241489
241770
242049
242335
242620
242906
243188
243475
243756
244031
244308
244580
244853
245124
245393
245659
245931
246202
246471
246738
247005
247274
247542
247809
248075
248343
248614
248886
249157
249434
249716
250008
250287
250571
250855
251138
251418
251701
251979
252255
252549
252840
253136
253428
253719
254010
254299
254588
254881
255179
255481
255772
256060
256348
256636
256927
257224
257514
257800
258086
258373
258658
258945
259227
259501
259783
260080
260369
260657
260941
261242
261539
261846
262151
262444
262752
263054
263357
263653
263939
264255
264554
264859
265150
265436
265716
266007
266308
266590
266869
267150
267470
267779
268078
268371
268661
268961
269255
269542
269818
270097
270380
270668
270949
271227
271504
271785
272061
272332
272597
272870
273147
273426
273703
273982
274259
274542
274824
275108
275386
275664
275944
276222
276500
276768
277039
277313
277594
277871
278147
278416
278687
278963
279248
279524
279796
280069
280346
280627
280898
281170
281443
281722
282005
282286
282567
282838
283122
283400
284788
285071
285344
285632
285915
286206
286483
286767
287054
287343
287631
287916
288201
288488
288768
289054
289371
289650
289937
290233
290511
290792
291067
291346
291621
291893
292168
292452
292732
293005
293285
293565
293846
294123
294398
294676
294955
295227
295503
295782
296060
296338
296622
296913
297196
297484
297769
298055
298333
298618
298903
299189
299473
299757
300045
300330
300610
300894
301177
301454
301737
302018
302299
302570
302848
303129
303405
303680
303959
304235
304512
304787
305065
305343
305622
305897
306175
306450
306723
306998
307285
307565
307842
308124
308403
308684
308958
309236
309515
309801
310080
310364
310648
310928
311206
311487
311767
312044
312325
312596
312871
313140
313396
313651
313902
314156
314401
314646
314897
315153
315413
315690
315957
316235
316518
316808
317092
317384
317671
317964
318248
318535
318820
319113
319403
319696
319991
320291
320582
320881
321173
321470
321764
322058
322352
322648
322946
323236
323524
323816
324104
324389
324669
324957
325240
325517
325798
326076
326356
326632
326908
327177
327447
327719
327985
328251
328515
328784
329052
329322
329595
329871
330153
330446
330738
331028
331327
331626
331919
332214
332512
332807
333103
333395
333692
333979
334266
334553
334840
335122
335403
335682
335965
336253
336536
336824
337113
337400
337687
337971
338259
338549
338845
339136
339422
339709
339997
340289
340579
340867
341159
341448
341739
342024
342312
342603
342894
343180
343457
343745
344036
344322
344610
344895
345185
345474
345762
346047
346333
346629
346927
347225
347514
347809
348114
348406
348699
348988
349273
349568
349859
350152
350442
350735
351024
351312
351600
351889
352178
352467
352755
353045
353340
353637
353935
354227
354520
354816
355110
355400
355687
355981
356276
356569
356860
357160
357458
357755
358050
358341
358640
358930
359223
359512
359807
360101
360394
360680
360968
361258
361546
361834
362125
362421
362715
363011
363303
363595
363888
364181
364471
364760
365056
365347
365642
365937
366230
366529
366828
367120
367415
367711
368007
368303
368592
368885
369177
369465
369753
370037
370327
370614
370913
371197
371489
371781
372078
372366
372657
372946
373239
373534
373819
374105
374394
374678
374964
375246
375532
375819
376114
376408
376698
376989
377286
377577
377872
378162
378456
378745
379039
379329
379623
379917
380209
380503
380792
381081
381370
381660
381949
382233
382519
382804
383093
383383
383669
383964
384260
384558
384850
385146
385442
385739
386031
386326
386621
386918
387216
387511
387800
388091
388385
388682
388976
389267
389560
389849
390145
390437
390728
391017
391308
391595
391880
392170
392463
392757
393055
393344
393640
393933
394232
394521
394810
395104
395394
395681
395968
396257
396549
396843
397132
397423
397714
398013
398309
398603
398897
399190
399482
399778
400065
400356
400645
400934
401220
401503
401793
402087
402380
402668
402957
403253
403549
403840
404127
404415
404705
405002
405292
405580
405862
406158
406453
406756
407054
407347
407639
407935
408236
408522
408810
409102
409401
409694
409988
410279
410573
410872
411170
411466
411761
412055
412346
412637
412928
413219
413514
413814
414106
414394
414686
414975
415267
415556
415843
416130
416423
416710
417002
417289
417588
417887
418176
418473
418766
419060
419351
419640
419926
420215
420504
420791
421080
421370
421664
421954
422244
422535
422828
423120
423418
423706
423996
424293
424587
424882
425171
425464
425751
426047
426340
426629
426914
427205
427493
427782
428069
428356
428651
428936
429229
429510
429799
430090
430376
430660
430943
431235
431527
431815
432106
432390
432675
432958
433242
433523
433804
434083
434371
434660
434946
435231
435517
435811
436101
436387
436672
436955
437253
437540
437828
438112
438401
438688
438986
439276
439576
439866
440160
440452
440746
441032
441334
441623
441912
442198
442483
442771
443057
443339
443625
443913
444200
444489
444776
445055
445339
445619
445901
446182
446458
446736
447018
447298
447576
447852
448127
448405
448684
448962
449238
449515
449796
450078
450360
450638
450921
451204
451478
451750
452024
452297
452562
452825
453090
453353
453622
453892
454160
454428
454702
454980
455263
455538
455812
456086
456364
456648
456929
457211
457500
457785
458079
458362
458648
458934
459225
459513
459797
460090
460384
460676
460968
461259
461548
461841
462129
462414
462703
462987
463277
463563
463850
464140
464432
464725
465011
465306
465596
465883
466164
466446
466731
467019
467306
467587
467871
468157
468439
468717
468999
469282
469567
469852
470134
470419
470704
470992
471280
471569
471861
472145
472432
472711
472997
473283
473570
473853
474134
474416
474694
474966
475243
475516
475789
476056
476320
476578
476842
477112
477382
477654
477920
478193
478471
478757
479038
479326
479616
479907
480193
480480
480773
481064
481352
481637
481924
482218
482506
482794
483080
483374
483666
483955
484241
484531
484819
485103
485388
485671
485948
486220
486489
486755
487023
487285
487547
487821
488096
488369
488637
488908
489184
489459
489730
489996
490263
490533
490805
491069
491334
491602
491874
492148
492422
492692
492963
493240
493515
493786
494058
494336
494617
494898
495175
495454
495736
496018
496299
496581
496865
497150
497435
497719
498003
498289
498576
498857
499136
499422
499705
499985
500261
500542
500823
501102
501372
501642
501916
502193
502465