Mammal: rabbit
Fs: 1000
Integration: ECG

4
257
509
769
1028
1285
1542
1801
2067
2330
2600
2865
3129
3389
3659
3935
4205
4471
4738
5015
5284
5552
5820
6091
6360
6627
6888
7156
7428
7698
7964
8235
8515
8783
9048
9311
9579
9850
10112
10376
10645
10914
11183
11447
11708
11975
12245
12514
12781
13049
13323
13592
13862
14130
14401
14666
14935
15200
15462
15728
15994
16260
16525
16788
17058
17333
17605
17876
18153
18437
18711
18986
19261
19545
19824
20097
20371
20647
20923
21196
21470
21744
22022
22298
22567
22837
23116
23389
23666
23938
24215
24498
24776
25051
25330
25607
25882
26150
26421
26692
26963
27233
27500
27766
28028
28292
28551
28807
29063
29319
29578
29839
30096
30357
30625
30897
31172
31442
31721
32000
32282
32561
32844
33126
33406
33685
33963
34243
34522
34796
35072
35346
35627
35916
36199
36485
36774
37064
37352
37641
37929
38217
38498
38778
39065
39355
39638
39920
40209
40496
40778
41055
41338
41621
41899
42177
42459
42734
43012
43288
43564
43842
44121
44395
44678
44956
45236
45515
45789
46065
46339
46616
46886
47155
47424
47693
47960
48224
48490
48760
49027
49297
49568
49839
50112
50382
50651
50924
51202
51474
51747
52024
52299
52589
52869
53154
53434
53716
53994
54271
54545
54822
55098
55371
55638
55916
56184
56464
56743
57020
57301
57582
57857
58132
58409
58683
58961
59236
59513
59790
60072
60347
60621
60898
61175
61453
61729
61997
62269
62546
62826
63094
63370
63648
63925
64198
64475
64755
65031
65307
65581
65863
66141
66418
66692
66970
67246
67528
67798
68074
68346
68620
68893
69163
69441
69719
69993
70265
70536
70808
71082
71355
71623
71889
72158
72430
72698
72963
73234
73507
73783
74057
74329
74604
74884
75164
75438
75716
75996
76275
76557
76834
77115
77396
77677
77958
78239
78515
78788
79061
79334
79611
79888
80167
80446
80723
81001
81285
81557
81835
82112
82390
82665
82940
83220
83493
83769
84043
84318
84595
84871
85143
85413
85692
85967
86243
86516
86789
87068
87349
87626
87900
88178
88457
88734
89007
89282
89560
89840
90117
90392
90671
90945
91221
91494
91778
92056
92338
92614
92883
93152
93422
93691
93958
94223
94491
94766
95042
95313
95587
95863
96140
96416
96690
96967
97248
97528
97803
98082
98359
98638
98914
99189
99465
99742
100017
100289
100559
100828
101098
101367
101632
101898
102167
102439
102715
102987
103262
103544
103829
104111
104391
104671
104952
105234
105515
105795
106080
106362
106644
106921
107192
107469
107744
108021
108295
108566
108841
109118
109392
109667
109944
110222
110497
110775
111050
111330
111610
111891
112166
112448
112732
113015
113300
113583
113871
114153
114445
114732
115014
115302
115584
115868
116151
116437
116723
117011
117291
117568
117849
118129
118417
118699
118982
119279
119577
119870
120158
120445
120728
121010
121295
121579
121874
122164
122455
122738
123025
123311
123606
123899
124185
124475
124768
125051
125339
125624
125913
126197
126479
126757
127039
127321
127605
127882
128158
128430
128706
128985
129260
129533
129810
130087
130369
130643
130922
131204
131488
131770
132052
132330
132617
132903
133197
133486
133769
134054
134342
134630
134914
135204
135496
135779
136065
136349
136628
136910
137186
137465
137744
138025
138305
138579
138851
139126
139405
139687
139967
140242
140519
140796
141073
141345
141614
141882
142153
142428
142706
142984
143259
143538
143819
144102
144384
144660
144940
145231
145519
145802
146087
146368
146652
146939
147220
147503
147787
148083
148371
148659
148941
149225
149510
149796
150076
150353
150633
150914
151195
151470
151750
152029
152312
152597
152883
153159
153439
153719
154013
154294
154581
154860
155141
155427
155706
155984
156261
156544
156824
157110
157391
157669
157951
158239
158517
158794
159070
159350
159633
159909
160189
160469
160750
161036
161314
161591
161870
162157
162443
162724
163002
163283
163565
163845
164120
164394
164682
164962
165240
165516
165791
166071
166346
166622
166896
167164
167440
167714
167999
168279
168562
168850
169135
169418
169699
169979
170260
170545
170822
171100
171382
171667
171947
172228
172508
172788
173068
173345
173624
173900
174175
174452
174728
175001
175274
175552
175839
176122
176407
176690
176975
177257
177537
177820
178102
178388
178669
178945
179222
179497
179775
180051
180330
180602
180872
181144
181415
181691
181965
182245
182529
182823
183118
183411
183701
183990
184283
184579
184867
185150
185441
185728
186024
186313
186602
186891
187188
187482
187776
188072
188362
188654
188947
189237
189522
189829
190118
190408
190696
190985
191282
191578
191873
192162
192452
192740
193032
193321
193611
193897
194185
194478
194760
195044
195328
195616
195905
196191
196476
196765
197058
197347
197633
197919
198210
198495
198781
199059
199342
199618
199896
200175
200456
200739
201023
201304
201593
201881
202162
202449
202737
203033
203324
203611
203902
204195
204487
204779
205068
205369
205665
205963
206255
206536
206823
207100
207380
207654
207932
208215
208497
208774
209048
209324
209601
209887
210168
210448
210728
211006
211286
211558
211829
212099
212375
212650
212935
213213
213491
213768
214051
214340
214620
214897
215176
215456
215734
216007
216280
216558
216833
217106
217384
217661
217936
218212
218488
218764
219034
219306
219572
219841
220113
220392
220667
220941
221218
221491
221765
222039
222311
222579
222849
223128
223410
223707
223992
224275
224560
224849
225138
225431
225720
226003
226288
226572
226854
227132
227412
227690
227968
228252
228535
228806
229075
229340
229603
229868
230130
230395
230657
230925
231191
231462
231738
232014
232284
232561
232838
233115
233392
233669
233946
234236
234528
234816
235097
235382
235667
235950
236241
236536
236839
237126
237408
237692
237979
238270
238565
238860
239146
239434
239719
239999
240277
240548
240828
241112
241388
241664
241938
242208
242482
242751
243018
243279
243538
243796
244054
244308
244561
244814
245065
245316
245570
245831
246095
246369
246646
246918
247187
247454
247722
247988
248252
248509
248761
249021
249284
249561
249897
250227
250552
250865
251176
251477
251779
252078
252373
252656
252943
253224
253518
253810
254106
254388
254668
254945
255215
255494
255767
256052
256328
256603
256874
257143
257415
257686
257952
258216
258479
258744
259006
259264
259521
259780
260041
260323
260591
260865
261136
261403
261671
261938
262207
262475
262739
263008
263286
263574
263846
264112
264395
264684
264964
265237
265511
265780
266042
266309
266577
266845
267113
267388
267669
267944
268219
268496
268778
269056
269337
269626
269911
270191
270473
270756
271034
271316
271604
271886
272163
272446
272729
273004
273283
273563
273845
274127
274409
274690
274969
275246
275521
275801
276073
276344
276619
276894
277160
277430
277711
277996
278265
278544
278823
279103
279384
279670
279960
280239
280531
280815
281097
281378
281659
281943
282219
282499
282776
283058
283346
283629
283914
284198
284483
284769
285057
285337
285620
285905
286188
286470
286758
287043
287319
287599
287885
288161
288439
288721
289005
289285
289566
289847
290127
290403
290687
290968
291251
291531
291816
292092
292367
292642
292917
293194
293468
293752
294032
294310
294586
294862
295139
295411
295680
295951
296219
296486
296752
297024
297297
297569
297836
298108
298386
298658
298937
299213
299487
299757
300030
300293
300552
300812
301064
301316
301574
301836
302096
302361
302621
302890
303156
303418
303688
303951
304216
304478
304743
305008
305271
305538
305800
306061
306329
306606
306886
307165
307438
307711
307988
308261
308531
308802
309076
309938
310219
310501
310782
311065
311341
311615
311890
312166
312442
312716
312986
313261
313536
313810
314085
314355
314628
314900
315171
315442
315714
315988
316262
316538
316807
317080
317356
317632
317901
318167
318437
318706
318971
319233
319498
319767
320040
320309
320579
320849
321118
321397
321671
321942
322221
322497
322774
323047
323316
323588
323856
324124
324386
324655
324926
325196
325471
325747
326019
326298
326579
326858
327133
327407
327685
327964
328238
328510
328788
329070
329342
329616
329885
330153
330415
330674
330932
331185
331441
331705
331983
332253
332528
332800
333070
333337
333600
333857
334117
334373
334627
334883
335144
335414
335681
335958
336240
336530
336814
337096
337393
337681
337968
338253
338544
338839
339143
339434
339725
340030
340328
340626
340920
341214
341514
341807
342104
342391
342679
342974
343263
343550
343839
344128
344414
344702
344983
345265
345548
345829
346106
346385
346665
346945
347222
347496
347769
348043
348320
348589
348862
349142
349425
349701
349977
350265
350553
350834
351112
351396
351681
351964
352244
352533
352815
353097
353376
353658
353944
354225
354506
354786
355065
355346
355633
355912
356189
356468
356746
357021
357297
357576
357862
358149
358431
358714
359004
359302
359587
359882
360173
360468
360759
361053
361343
361636
361926
362217
362508
362794
363081
363365
363653
363938
364229
364516
364800
365084
365373
365653
365930
366209
366495
366779
367062
367343
367628
367910
368196
368479
368761
369044
369339
369622
369909
370196
370482
370770
371055
371338
371620
371912
372207
372494
372792
373085
373384
373670
373960
374252
374539
374823
375117
375409
375701
375989
376278
376560
376842
377128
377403
377692
377975
378258
378542
378831
379124
379420
379705
379990
380273
380572
380858
381146
381430
381722
382025
382310
382594
382886
383176
383466
383760
384052
384340
384637
384922
385211
385501
385793
386081
386368
386657
386943
387233
387520
387804
388089
388375
388653
388928
389206
389486
389773
390057
390339
390625
390914
391200
391483
391768
392057
392344
392630
392914
393201
393499
393785
394082
394370
394655
394940
395220
395506
395790
396076
396362
396651
396946
397234
397517
397802
398088
398372
398654
398937
399224
399509
399790
400067
400342
400614
400887
401166
401628
401950
402236
402512
402782
403050
403316
403592
403872
404154
404434
404712
404996
405287
405591
405888
406190
406496
406795
407098
407393
407690
407985
408279
408567
408853
409139
409433
409724
410015
410311
410608
410907
411206
411502
411797
412092
412390
412689
412983
413277
413570
413864
414159
414449
414739
415030
415318
415605
415891
416184
416483
416776
417064
417353
417639
417925
418207
418492
418772
419055
419340
419618
419903
420189
420469
420752
421035
421315
421594
421877
422152
422433
422713
423010
423299
423585
423877
424166
424451
424735
425017
425312
425602
425890
426177
426468
426760
427049
427340
427626
427919
428212
428498
428790
429079
429370
429664
429953
430245
430530
430810
431095
431378
431657
431935
432221
432506
432797
433086
433381
433668
433957
434247
434535
434821
435104
435389
435677
435970
436258
436544
436837
437127
437423
437708
437995
438281
438564
438851
439138
439421
439711
439991
440273
440552
440844
441122
441399
441676
441950
442226
442499
442777
443054
443325
443598
443869
444146
444423
444710
445001
445291
445580
445872
446164
446453
446740
447033
447321
447620
447906
448194
448481
448767
449049
449333
449612
449898
450179
450461
450742
451021
451303
451587
451872
452154
452442
452732
453019
453307
453595
453880
454168
454456
454742
455026
455306
455586
455862
456142
456427
456713
456998
457282
457565
457854
458152
458439
458731
459017
459308
459591
459875
460156
460435
460711
460987
461262
461537
461816
462100
462381
462661
462934
463217
463501
463786
464075
464354
464644
464934
465229
465511
465797
466078
466362
466639
466919
467200
467487
467772
468057
468337
468622
468906
469190
469475
469755
470036
470321
470611
470887
471173
471449
471729
472012
472286
472561
472845
473124
473402
473677
473956
474238
474518
474801
475076
475356
475635
475914
476197
476472
476743
477014
477291
477572
477849
478124
478397
478685
478972
479256
479536
479815
480096
480376
480659
480941
481216
481493
481771
482047
482331
482602
482877
483156
483441
483730
484011
484291
484568
484861
485152
485438
485720
486004
486292
486581
486865
487146
487427
487706
487984
488263
488534
488807
489079
489351
489617
489891
490185
490479
490766
491053
491338
491620
491911
492227
492556
492868
493165
493468
493765
494056
494346
494631
494914
495210
495504
495796
496103
496397
496710
497011
497304
497594
497902
498200
498504
498794
499086
499379
499663
499945
500229
500515
500788
501055
501319
501584
501853
502118
502388
502661
502941
503239
503529
503826
504125
504422
504708
504994
505291
505589
505882
506162
506443
506720
507012
507344
507652
507945
508233
508521
508808
509096
509381
509655
509927
510197
510466
510730
510988
511254
511547
511842
512142
512431
512717
513003
513289
513575
513869
514159
514443
514729
515015
515299
515584
515872
516171
516467
516758
517056
517362
517661
517952
518246
518541
518833
519119
519414
519706
519995
520285
520574
520865
521149
521434
521721
522008
522293
522576
522857
523137
523416
523690
523969
524248
524523
524794
525069
525346
525620
525891
526166
526445
526722
527003
527280
527560
527846
528127
528403
528688
528976
529251
529527
529804
530083
530364
530638
530915
531193
531468
531742
532018
532294
532576
532852
533134
533415
533698
533972
534245
534522
534799
535074
535350
535629
535906
536183
536462
536732
537009
537282
537554
537831
538108
538387
538665
538937
539209
539483
539764
540041
540319
540601
540892
541173
541454
541740
542023
542306
542593
542873
543156
543440
543718
544001
544282
544567
544845
545128
545401
545685
545971
546251
546532
546824
547119
547408
547701
547987
548270
548555
548834
549110
549378
549655
549927
550204
550471
550737
551014
551301
551596
551877
552156
552441
552725
553003
553276
553548
553826
554111
554390
554667
554947
555225
555503
555780
556061
556340
556623
556906
557186
557471
557757
558037
558316
558593
558874
559157
559433
559710
559998
560290
560579
560865
561158
561453
561742
562035
562319
562614
562910
563204
563494
563800
564090
564381
564672
564977
565266
565561
565851
566146
566449
566736
567032
567322
567620
567909
568190
568481
568762
569041
569323
569615
569901
570188
570482
570762
571045
571326
571599
571868
572135
572403
572675
572956
573231
573529
573829
574140
574451
574749
575048
575345
575640
575932
576229
576520
576813
577104
577391
577692
577995
578292
578583
578878
579167
579461
579745
580035
580336
580625
580919
581213
581512
581807
582096
582396
582690
582986
583274
583558
583848
584133
584422
584708
584989
585272
585562
585851
586141
586424
586716
587010
587298
587586
587873
588160
588445
588728
589025
589315
589610
589901
590192
590477
590767
591050
591345
591636
591922
592205
592487
592780
593073
593364
593653
593939
594230
594516
594802
595081
595371
595657
595937
596216
596498
596787
597067
597352
597634
597921
598209
598494
598771
599049
599332
599612
599894
600181
600468
600757
601042
601327
601618
601911
602199
602484
602777
603064
603347
603628
603909
604200
604488
604784
605074
605358
605650
605935
606219
606503
606795
607083
607370
607656
607941
608231
608518
608805
609086
609375
609658
609942
610223
610503
610806
611108
611406
611701
611995
612299
612590
612876
613164
613459
613751
614049
614337
614630
614921
615212
615498
615791
616086
616378
616673
616960
617254
617541
617826
618107
618391
618675
618955
619224
619500
619771
620040
620300
620561
621335
621619
621899
622184
622468
622752
623034
623313
623588
623866
624150
624435
624721
625001
625286
625586
625881
626167
626457
626756
627064
627360
627649
627939
628227
628521
628802
629093
629391
629686
629977
630261
630542
630816
631088
631352
631613
631876
632156
632422
632691
632959
633244
633532
633823
634108
634389
634683
634982
635271
635562
635851
636146
636446
636741
637036
637338
637636
637933
638229
638535
638830
639125
639414
639708
640014
640306
640597
640891
641187
641489
641783
642071
642377
642678
642970
643258
643552
643852
644139
644419
644708
644996
645285
645578
645864
646158
646449
646736
647020
647305
647598
647882
648167
648460
648761
649050
649335
649630
649925
650216
650506
650791
651091
651384
651683
651976
652277
652576
652868
653153
653439
653744
654038
654330
654617
654923
655216
655515
655807
656104
656394
656688
656989
657281
657587
657890
658184
658478
658770
659073
659371
659666
659958
660250
660540
660828
661113
661411
661707
661999
662282
662569
662857
663157
663446
663733
664017
664309
664598
664886
665173
665466
665762
666059
666346
666641
666939
667231
667524
667814
668113
668417
668711
669013
669308
669615
669919
670212
670508
670806
671100
671399
671692
671998
672296
672591
672883
673187
673479
673767
674051
674339
674623
674906
675192
675478
675762
676054
676338
676620
676896
677179
677474
677762
678051
678336
678628
678927
679220
679509
679793
680085
680376
680671
680959
681253
681552
681837
682120
682401
682694
682990
683282
683567
683858
684152
684453
684741
685029
685315
685600
685882
686155
686431
686709
686998
687279
687556
687830
688111
688395
688675
688949
689228
689509
689788
690067
690338
690611
690895
691186
691472
691755
692033
692312
692589
692863
693136
693419
693696
693978
694256
694531
694806
695076
695351
695621
695892
696159
696422
696685
696952
697219
697490
697762
698032
698303
698571
698841
699113
699382
699657
699929
700205
700480
700758
701029
701307
701588
701880
702163
702446
702725
703011
703295
703572
703849
704132
704419
704698
704983
705262
705545
705831
706120
706399
706679
706954
707232
707510
707784
708054
708327
708600
708871
709145
709413
709679
709950
710218
710492
710759
711027
711290
711560
711835
712106
712382
712650
712921
713198
713468
713736
714000
714265
714542
714815
715088
715357
715625
715891
716159
716432
716701
716968
717235
717503
717771
718038
718304
718572
718843
719119
719392
719668
719942
720216
720490
720767
721040
721314
721590
721866
722140
722414
722689
722968
723245
723519
723791
724062
724334
724600
724867
725138
725409
725679
725959
726242
726518
726801
727085
727366
727643
727925
728216
728503
728785
729067
729348
729630
729910
730190
730468
730744
731023
731296
731571
731844
732122
732397
732674
732945
733214
733492
733766
734042
734318
734593
734873
735148
735420
735693
735972
736245
736516
736790
737070
737347
737625
737901
738179
738458
738738
739013
739288
739565
739841
740114
740389
740665
740938
741213
741485
741752
742024
742292
742554
742817
743084
743351
743631
743897
744158
744420
744678
744935
745195
745452
745708
745976
746252
746545
746824
747101
747382
747663
747942
748220
748500
748778
749062
749346
749622
749903
750191
750475
750757
751037
751318
751598
751876
752158
752443
752740
753039
753325
753614
753913
754206
754494
754780
755077
755375
755663
755955
756248
756547
756833
757120
757404
757688
757975
758271
758560
758860
759158
759450
759738
760031
760326
760616
760903
761194
761486
761782
762074
762369
762665
762957
763243
763543
763834
764144
764443
764735
765031
765325
765619
765909
766198
766484
766768
767048
767326
767611
767895
768184
768464
768742
769035
769326
769610
769901
770187
770478
770769
771061
771350
771639
771923
772212
772495
772776
773061
773355
773638
773911
774187
774463
774744
775023
775302
775582
775872
776163
776452
776741
777032
777317
777603
777885
778170
778453
778736
779011
779288
779572
779847
780123
780394
780667
780943
781213
781480
781751
782026
782301
782571
782840
783114
783387
783665
783943
784217
784505
784789
785072
785349
785632
785925
786223
786514
786818
787108
787417
787725
788022
788310
788605
788909
789203
789498
789798
790100
790402
790698
790991
791287
791589
791891
792189
792483
792781
793077
793361
793663
793961
794276
794579
794873
795170
795473
795766
796053
796339
796633
796921
797227
797519
797804
798105
798407
798704
798992
799277
799568
799875
800156
800434
800707
800998
801271
801552
801836
802107
802367
802661
802971
803266
803556
803830
804112
804380
804656
805207
805473
805742
806015
806297
806586
806872
807154
807439
807730
808020
808309
808598
808885
809170
809450
809738
810024
810305
810589
810880
811169
811451
811732
812020
812304
812587
812872
813155
813441
813720
814000
814286
814568
814845
815118
815393
815667
815941
816211
816488
816765
817038
817308
817581
817855
818129
818404
818694
818970
819242
819524
819799
820067
820330
820587
820834
821086
821331
821574
821807
822039
822266
822499
822737
822983
823243
823507
823783
824798
825051
825295
825531
825766
825999
826231
826466
826705
826955
827218
827502
827817
828140
828463
828788
829114
829435
829751
830071
830382
830702
831028
831356
831673
832004
832320
832632
832935
833245
833557
833852
834149
834445
834741
835054
835354
835643
835941
836239
836531
836819
837107
837393
837693
837977
838257
838542
838828
839106
839386
839666
839948
840223
840492
840768
841040
841316
841599
841875
842151
842426
842709
842993
843269
843551
843836
844130
844421
844704
844984
845267
845551
845834
846115
846399
846688
846977
847258
847539
847827
848119
848403
848685
848978
849276
849565
849851
850137
850426
850711
850992
851275
851565
851853
852135
852419
852708
852992
853283
853571
853858
854154
854443
854732
855017
855306
855588
855868
856148
856430
856734
857031
857325
857626
857924
858218
858517
858811
859111
859403
859691
859988
860284
860589
860878
861167
861460
861747
862030
862317
862612
862908
863201
863492
863779
864075
864365
864660
864950
865243
865527
865818
866107
866395
866693
866988
867276
867564
867853
868139
868428
868713
869012
869302
869591
869875
870163
870452
870751
871044
871331
871627
871924
872216
872509
872804
873095
873395
873689
873986
874281
874584
874881
875182
875474
875768
876058
876349
876640
876934
877226
877516
877799
878090
878382
878673
878963
879261
879556
879852
880146
880440
880732
881035
881329
881621
881903
882191
882483
882767
883055
883346
883633
883923
884211
884503
884793
885085
885376
885666
885956
886248
886543
886830
887121
887419
887718
888010
888294
888578
888865
889153
889434
889715
890004
890299
890587
890872
891163
891452
891740
892034
892323
892617
892909
893204
893492
893781
894074
894367
894657
894947
895237
895529
895827
896123
896415
896713
897006
897304
897601
897890
898185
898480
898769
899054
899347
899642
899941
900231
900529
900828
901140
901436
901729
902024
902326
902625
902929
903227
903529
903826
904123
904420
904723
905025
905318
905611
905907
906202
906505
906791
907089
907385
907687
907980
908276
908579
908878
909175
909478
909770
910073
910367
910664
910954
911251
911548
911843
912132
912424
912722
913023
913316
913608
913903
914197
914497
914790
915082
915376
915681
915986
916283
916575
916869
917164
917455
917746
918039
918336
918631
918920
919211
919502
919792
920091
920385
920681
920972
921271
921563
921852
922150
922448
922746
923043
923334
923638
923928
924223
924508
924798
925083
925387
925689
925978
926272
926562
926864
927155
927450
927741
928032
928318
928608
928893
929196
929495
929799
930105
930397
930693
930992
931284
931568
931853
932148
932438
932729
933019
933307
933609
933906
934191
934487
934779
935082
935381
935679
935979
936272
936570
936862
937150
937444
937745
938048
938343
938642
938946
939253
939557
939851
940139
940431
940731
941020
941311
941599
941889
942179
942472
942758
943055
943343
943632
943922
944213
944505
944805
945097
945388
945681
945965
946258
946545
946824
947112
947410
947711
948000
948291
948575
948863
949148
949438
949724
950018
950308
950599
950885
951167
951461
951757
952056
952347
952642
952942
953239
953525
953805
954091
954391
954685
954977
955267
955563
955853
956145
956429
956714
957002
957290
957578
957865
958156
958445
958754
959047
959343
959639
959939
960235
960527
960812
961099
961390
961684
961971
962252
962538
962835
963137
963429
963721
964020
964324
964626
964923
965214
965506
965798
966088
966377
966660
966957
967255
967555
967852
968142
968453
968750
969043
969330
969617
969911
970212
970502
970787
971073
971361
971648
971930
972210
972496
972786
973075
973357
973636
973917
974209
974494
974780
975070
975357
975654
975944
976232
976523
976820
977121
977410
977702
977990
978286
978582
978876
979169
979461
979764
980054
980349
980637
980933
981257
981551
981847
982136
982432
982735
983024
983313
983607
983898
984193
984477
984764
985060
985354
985656
985951
986241
986544
986843
987140
987425
987717
988014
988305
988601
988889
989184
989483
989774
990061
990345
990635
990924
991212
991497
991779
992058
992340
992632
992916
993200
993485
993782
994068
994366
994657
994953
995249
995555
995842
996136
996424
996721
997016
997311
997599
997897
998189
998496
998783
999071
999373
999665
999950
1000234
1000523
1000809
1001111
1001402
1001679
1001957
1002238
1002520
1002799
1003076
1003358
1003641
1003916
1004196
1004477
1004754
1005034
1005314
1005589
1005852
1006106
1006363
1006615
1006868
1007118
1007369
1007623
1007884
1010313
1010588
1010865
1011144
1011437
1011730
1012018
1012317
1012613
1012912
1013214
1013514
1013816
1014119
1014429
1014728
1015033
1015342
1015658
1015960
1016264
1016561
1016866
1017160
1017457
1017760
1018064
1018363
1018664
1018952
1019268
1019569
1019875
1020175
1020473
1020774
1021073
1021369
1021673
1021973
1022275
1022566
1022860
1023158
1023471
1023768
1024068
1024362
1024665
1024969
1025261
1025556
1025857
1026156
1026454
1026747
1027041
1027333
1027626
1027917
1028206
1028495
1028789
1029083
1029381
1029681
1029979
1030272
1030564
1030852
1031158
1031455
1031753
1032045
1032338
1032633
1032935
1033229
1033529
1033826
1034122
1034412
1034700
1034999
1035293
1035583
1035868
1036165
1036451
1036751
1037042
1037333
1037623
1037917
1038212
1038510
1038795
1039090
1039386
1039677
1039975
1040261
1040550
1040847
1041142
1041431
1041726
1042020
1042312
1042601
1042890
1043196
1043503
1043801
1044093
1044389
1044706
1045005
1045303
1045595
1045895
1046188
1046476
1046759
1047043
1047338
1047627
1047922
1048209
1048500
1048796
1049095
1049395
1049687
1049975
1050268
1050564
1050853
1051154
1051443
1051743
1052036
1052324
1052611
1052911
1053208
1053506
1053798
1054089
1054383
1054682
1054969
1055255
1055538
1055826
1056117
1056401
1056680
1056959
1057242
1057530
1057814
1058094
1058374
1058666
1058957
1059242
1059527
1059808
1060102
1060395
1060687
1060973
1061275
1061563
1061853
1062135
1062428
1062721
1063022
1063315
1063601
1063884
1064170
1064459
1064739
1065022
1065310
1065598
1065892
1066178
1066460
1066740
1067037
1067332
1067612
1067897
1068185
1068475
1068760
1069042
1069317
1069604
1069886
1070167
1070444
1070724
1071017
1071312
1071599
1071885
1072177
1072465
1072769
1073058
1073355
1073651
1073949
1074242
1074536
1074828
1075121
1075418
1075713
1076004
1076295
1076585
1076874
1077156
1077442
1077740
1078032
1078328
1078620
1078908
1079202
1079489
1079775
1080063
1080355
1080650
1080942
1081236
1081535
1081835
1082132
1082426
1082718
1083015
1083314
1083605
1083899
1084190
1084480
1084770
1085061
1085345
1085633
1085921
1086202
1086484
1086764
1087056
1087351
1087640
1087930
1088219
1088515
1088805
1089095
1089380
1089671
1089961
1090253
1090532
1090815
1091100
1091384
1091661
1091944
1092226
1092506
1092792
1093082
1093367
1093652
1093937
1094220
1094503
1094788
1095071
1095355
1095640
1095924
1096205
1096488
1096776
1097070
1097358
1097646
1097937
1098227
1098525
1098815
1099100
1099387
1099678
1099960
1100248
1100531
1100820
1101099
1101382
1102666
1102908
1103146
1103384
1103624
1103867
1104111
1104371
1104631
1104905
1105166
1105433
1105699
1105981
1106266
1106586
1106868
1107152
1107457
1107779
1108096
1108405
1108703
1109012
1109327
1109664
1109976
1110289
1110598
1110921
1111231
1111531
1111837
1112141
1112458
1112758
1113055
1113358
1113674
1113993
1114298
1114610
1114919
1115245
1115554
1115851
1116155
1116450
1116750
1117045
1117337
1117628
1117936
1118229
1118528
1118815
1119104
1119398
1119696
1119986
1120275
1120563
1120863
1121157
1121454
1121749
1122047
1122354
1122661
1122954
1123249
1123538
1123840
1124132
1124423
1124711
1125001
1125304
1125598
1125889
1126184
1126480
1126785
1127081
1127373
1128551
1128836
1129126
1129423
1129724
1130026
1130325
1130617
1130913
1131212
1131506
1131797
1132089
1132382
1132676
1132965
1133253
1133551
1133864
1134159
1134459
1134751
1135044
1135347
1135647
1135933
1136223
1136518
1136816
1137105
1137405
1137700
1137993
1138287
1138577
1138874
1139176
1139467
1139760
1140050
1140344
1140636
1140940
1141238
1141536
1141840
1142142
1142451
1142761
1143063
1143365
1143666
1143965
1144258
1144557
1144867
1145168
1145476
1145771
1146080
1146383
1146679
1146971
1147261
1147555
1147851
1148147
1148442
1148734
1149034
1149332
1149630
1149923
1150213
1150512
1150807
1151093
1151386
1151680
1151970
1152274
1152568
1152861
1153152
1153444
1153741
1154032
1154327
1154624
1154930
1155220
1155518
1155822
1156131
1156438
1156733
1157022
1157327
1157622
1157917
1158208
1158497
1158794
1159077
1159367
1159649
1159939
1160234
1160522
1160808
1161091
1161371
1161658
1161947
1162227
1162513
1162804
1163117
1163418
1163716
1164020
1164320
1164617
1164906
1165192
1165476
1165760
1166049
1166325
1166602
1166880
1167161
1167438
1167721
1168000
1168287
1168572
1168853
1169134
1169414
1169702
1169993
1170276
1170567
1170856
1171150
1171452
1171743
1172034
1172329
1172624
1172910
1173200
1173483
1173776
1174071
1174356
1174643
1174932
1175221
1175525
1175816
1176106
1176391
1176690
1176980
1177264
1177551
1177840
1178142
1178433
1178724
1179013
1179304
1179595
1179881
1180164
1180455
1180748
1181041
1181331
1181621
1181911
1182202
1182496
1182782
1183067
1183352
1183653
1183941
1184227
1184512
1184806
1185099
1185388
1185675
1185959
1186247
1186531
1186812
1187091
1187373
1187668
1187958
1188248
1188533
1188821
1189118
1189409
1189703
1189993
1190297
1190591
1190885
1191173
1191459
1191750
1192037
1192324
1192604
1192888
1193172
1193459
1193741
1194023
1194307
1194599
1194893
1195184
1195472
1195773
1196063
1196362
1196651
1196941
1197231
1197524
1197822
1198110
1198410
1198711
1199016
1199310
1199610
1199903
1200194
1200486
1200770
1201057
1201343
1201633
1201919
1202202
1202484
1202773
1203062
1203346
1203633
1203917
1204204
1204489
1204778
1205060
1205349
1205644
1205938
1206231
1206536
1206832
1207130
1207420
1207725
1208020
1208322
1208622
1208918
1209215
1209508
1209799
1210092
1210379
1210665
1210953
1211251
1211543
1211836
1212129
1212430
1212724
1213018
1213308
1213601
1213897
1214191
1214479
1214767
1215053
1215340
1215632
1215912
1216198
1216477
1216763
1217044
1217331
1217615
1217896
1218178
1218469
1218763
1219060
1219350
1219644
1219937
1220224
1220516
1220803
1221092
1221385
1221678
1221970
1222260
1222547
1222838
1223127
1223414
1223702
1223998
1224302
1224591
1224886
1225180
1225473
1225765
1226053
1226348
1226652
1226955
1227256
1227557
1227854
1228161
1228460
1228751
1229042
1229342
1229638
1229930
1230218
1230506
1230800
1231098
1231390
1231683
1231971
1232265
1232566
1232860
1233152
1233438
1233735
1234024
1234312
1234597
1234879
1235162
1235428
1235696
1235958
1236223
1236499
1236775
1237038
1237317
1237590
1237881
1238163
1238455
1238735
1239016
1239305
1239596
1239884
1240175
1240463
1240766
1241070
1241364
1241657
1241954
1242265
1242571
1242872
1243168
1243474
1243777
1244074
1244369
1244668
1244975
1245286
1245591
1245892
1246195
1246491
1246789
1247076
1247365
1247666
1247970
1248263
1248554
1248843
1249138
1249436
1249732
1250018
1250312
1250604
1250895
1251180
1251473
1251774
1252071
1252360
1252644
1252938
1253227
1253513
1253798
1254086
1254376
1254667
1254956
1255241
1255527
1255819
1256103
1256394
1256680
1256980
1257274
1257565
1257853
1258149
1258449
1258749
1259045
1259336
1259638
1259935
1260235
1260525
1260828
1261135
1261424
1261716
1262015
1262315
1262608
1262903
1263195
1263490
1263787
1264078
1264368
1264665
1264967
1265267
1265559
1265848
1266143
1266431
1266718
1266998
1267296
1267588
1267885
1268182
1268473
1268769
1269066
1269355
1269644
1269936
1270232
1270524
1270815
1271100
1271395
1271686
1271969
1272265
1272554
1272855
1273152
1273453
1273745
1274046
1274348
1274639
1274933
1275228
1275523
1275816
1276111
1276396
1276700
1276999
1277290
1277582
1277881
1278176
1278470
1278766
1279057
1279355
1279655
1279947
1280231
1280517
1280813
1281097
1281378
1281662
1281950
1282241
1282528
1282804
1283089
1283375
1283669
1283964
1284252
1284553
1284859
1285153
1285441
1285733
1286030
1286327
1286617
1286903
1287193
1287482
1287774
1288063
1288352
1288649
1288933
1289212
1289489
1289770
1290046
1290591
1290859
1291121
1291392
1291642
1291896
1292148
1293864
1294106
1294346
1294587
1294835
1295084
1295355
1295637
1295922
1296199
1296481
1296765
1297060
1297366
1297663
1298177
1298538
1298832
1299119
1299397
1299674
1299952
1300241
1300537
1300851
1301170
1301503
1301825
1302152
1302474
1302803
1303133
1303461
1303793
1304110
1304432
1304745
1305060
1305366
1305686
1305996
1306314
1306625
1306928
1307229
1307537
1307842
1308143
1308437
1308730
1309026
1309334
1309643
1309938
1310231
1310525
1310819
1311124
1311414
1311697
1311998
1312298
1312601
1312890
1313177
1313465
1313751
1314037
1314316
1314598
1314882
1315171
1315462
1315753
1316035
1316320
1316611
1316907
1317202
1317490
1317779
1318069
1318357
1318639
1318934
1319216
1319508
1319800
1320085
1320371
1320655
1320950
1321243
1321531
1321818
1322098
1322386
1322677
1322963
1323248
1323534
1323822
1324121
1324415
1324700
1324988
1325274
1325564
1325860
1326146
1326434
1326723
1327021
1327322
1327609
1327896
1328190
1328486
1328789
1329082
1329372
1329658
1329948
1330234
1330515
1330804
1331093
1331385
1331671
1331952
1332233
1332517
1332798
1333084
1333370
1333651
1333952
1334247
1334546
1334836
1335134
1335426
1335721
1336010
1336291
1336572
1336859
1337154
1337441
1337731
1338017
1338316
1338604
1338891
1339180
1339468
1339752
1340043
1340329
1340610
1340896
1341185
1341468
1341753
1342034
1342321
1342607
1342896
1343183
1343466
1343746
1344040
1344323
1344602
1344880
1345159
1345442
1345728
1346009
1346286
1346565
1346848
1347130
1347410
1347685
1347963
1348244
1348528
1348809
1349087
1349364
1349646
1349927
1350207
1350481
1350756
1351036
1351311
1351580
1351849
1352116
1352384
1352656
1352925
1353194
1353460
1353729
1353998
1354268
1354536
1354807
1355073
1355340
1355620
1355893
1356164
1356433
1356714
1356994
1357266
1357542
1357818
1358103
1358387
1358667
1358945
1359225
1359516
1359813
1360100
1360384
1360674
1360970
1361289
1361591
1361895
1362186
1362484
1362794
1363098
1363388
1363675
1363957
1364272
1364570
1364867
1365154
1365443
1365732
1366036
1366334
1366622
1366909
1367185
1367472
1367770
1368050
1368336
1368675
1368997
1369304
1369589
1369884
1370204
1370524
1370832
1371131
1371430
1371751
1372054
1372353
1372646
1372926
1373236
1373554
1373867
1374177
1374476
1374792
1375101
1375409
1375705
1376013
1376318
1376622
1376920
1377210
1377509
1377809
1378107
1378401
1378692
1378985
1379286
1379592
1379893
1380188
1380475
1380769
1381062
1381349
1381635
1381914
1382195
1382474
1382759
1383035
1383316
1383601
1383891
1384177
1384461
1384740
1385026
1385323
1385622
1385910
1386202
1386496
1386792
1387082
1387367
1387651
1387938
1388218
1388489
1388765
1389058
1389357
1389642
1389930
1390225
1390516
1390791
1391071
1391353
1391642
1391924
1392218
1392516
1392812
1393120
1393417
1393711
1393997
1394284
1394573
1394863
1395143
1395423
1395705
1395984
1396251
1396512
1396794
1397075
1397370
1397662
1397941
1398231
1398529
1398833
1399144
1399486
1399783
1400079
1400372
1400659
1400944
1401226
1401505
1401780
1402053
1402311
1402547
1402788
1403051
1403399
1403717
1403996
1404234
1404469
1404711
1404950
1405192
1405435
1405690
1405938
1406193
1406448
1406707
1406963
1407213
1407466
1407721
1407976
1408224
1408473
1408723
1408974
1409227
1409480
1409732
1409983
1410237
1410494
1410755
1411010
1411269
1411559
1411838
1412255
1412628
1412955
1413263
1413607
1414235
1414639
1414970
1415285
1415587
1415915
1416229
1416527
1416840
1417141
1417786
1418239
1418584
1418885
1419178
1419466
1419765
1420065
1420356
1420692
1421009
1421336
1421639
1421942
1422250
1422562
1422907
1423226
1423530
1423826
1424121
1424417
1424747
1425058
1425363
1425660
1425938
1426203
1426470
1426743
1427041
1427326
1427604
1427891
1428190
1428472
1428759
1429045
1429325
1429598
1429876
1430144
1430414
1430679
1430949
1431218
1431476
1431735
1432004
1432271
1432538
1432815
1433088
1433362
1433640
1433933
1434210
1434489
1434776
1435065
1435345
1435633
1435928
1436213
1436491
1436781
1437287
1437642
1437935
1438224
1438514
1438795
1439073
1439351
1439669
1439969
1440259
1440553
1440854
1441165
1441665
1442033
1442360
1442667
1442960
1443248
1443547
1443840
1444137
1444426
1444722
1445029
1445322
1445644
1445955
1446254
1446567
1446868
1447165
1447480
1447796
1448112
1448412
1448706
1449032
1449345
1449651
1449943
1450229
1450520
1450813
1451101
1451389
1451685
1451969
1452258
1452552
1452835
1453118
1453408
1453689
1453968
1454247
1454516
1454783
1455045
1455302
1455562
1455825
1456084
1456344
1456611
1456897
1457176
1457453
1457746
1458028
1458311
1458609
1458893
1459180
1459473
1459761
1460056
1460348
1460638
1460927
1461211
1461493
1461777
1462063
1462351
1462637
1462929
1463217
1463518
1463811
1464111
1464399
1464696
1464995
1465583
1465884
1466175
1466465
1466758
1467049
1467338
1467615
1467897
1468174
1468455
1468740
1469024
1469309
1469600
1469884
1470164
1470447
1470728
1471006
1471283
1471560
1471842
1472116
1472399
1472681
1472964
1473246
1473526
1473805
1474084
1474368
1474653
1474935
1475217
1475501
1475790
1476075
1476354
1476635
1476916
1477191
1477466
1477735
1478009
1478278
1478550
1478822
1479097
1479366
1479639
1479916
1480185
1480464
1480745
1481019
1481287
1481556
1481812
1482070
1482320
1482568
1482813
1483065
1483309
1483570
1483819
1484072
1484327
1484585
1484845
1485099
1485355
1485610
1485877
1486138
1486393
1486649
1486905
1487164
1487424
1487688
1487951
1488212
1488473
1488741
1489012
1489309
1489592
1489876
1490177
1490466
1490761
1491046
1491329
1491613
1491913
1492237
1492547
1492843
1493136
1493436
1493738
1494030
1494315
1494606
1494900
1495186
1495473
1495753
1496036
1496332
1496617
1496901
1497177
1497468
1497761
1498052
1498348
1498647
1498950
1499249
1499541
1499830
1500128
1500422
1500707
1500986
1501275
1501563
1501847
1502128
1502415
1502702
1502990
1503276
1503560
1503848
1504140
1504431
1504723
1505009
1505299
1505593
1505881
1506168
1506459
1506749
1507039
1507323
1507610
1507902
1508193
1508481
1508772
1509060
1509350
1509645
1509944
1510231
1510526
1510827
1511122
1511411
1511697
1511987
1512279
1512571
1512863
1513157
1513454
1513748
1514038
1514325
1514612
1514898
1515181
1515465
1515748
1516041
1516333
1516620
1516908
1517195
1517486
1517774
1518064
1518346
1518639
1518937
1519224
1519512
1519799
1520090
1520379
1520663
1520944
1521225
1521512
1521799
1522087
1522378
1522672
1522969
1523282
1523572
1523863
1524156
1524453
1524739
1525025
1525315
1525605
1525892
1526177
1526471
1526765
1527053
1527340
1527626
1527914
1528200
1528486
1528769
1529051
1529345
1529640
1529927
1530212
1530496
1530776
1531054
1531328
1531600
1531877
1532162
1532443
1532723
1533012
1533303
1533600
1533894
1534184
1534481
1534775
1535073
1535373
1535668
1535959
1536251
1536546
1536833
1537118
1537408
1537704
1537993
1538278
1538562
1538844
1539132
1539418
1539701
1539989
1540279
1540564
1540850
1541133
1541423
1541714
1542006
1542295
1542588
1542880
1543171
1543459
1543744
1544031
1544318
1544603
1544887
1545173
1545458
1545754
1546043
1546336
1546626
1546917
1547209
1547499
1547787
1548076
1548362
1548646
1548928
1549216
1549506
1549796
1550084
1550375
1550658
1550945
1551234
1551522
1551806
1552089
1552370
1552662
1552945
1553224
1553509
1553787
1554060
1554333
1554607
1554881
1555158
1555443
1555720
1555996
1556279
1556561
1556844
1557120
1557397
1557669
1557944
1558216
1558481
1558743
1558997
1559250
1559497
1559742
1559988
1560229