---
Mammal:            dog
Fs:                500
Integration_level: electrocardiogram

Channels:

    - type:   electrography
      name:   Data
      unit:   mV
      enable: yes

---

0.060057
0.064323
0.068589
0.073524
0.077790
0.080550
0.083561
0.085987
0.088747
0.090002
0.090002
0.090002
0.089416
0.088496
0.087576
0.085987
0.082975
0.080550
0.078375
0.076535
0.076284
0.079630
0.085987
0.094853
0.104639
0.114677
0.125383
0.133915
0.138850
0.140690
0.139770
0.136341
0.131489
0.127558
0.125049
0.123292
0.122372
0.121703
0.120197
0.116266
0.110411
0.102799
0.094602
0.087576
0.081135
0.076535
0.074109
0.074109
0.075949
0.078710
0.082055
0.084816
0.086656
0.086321
0.086321
0.086656
0.087576
0.088496
0.090002
0.091842
0.094602
0.096108
0.098533
0.100374
0.102465
0.103719
0.104639
0.105225
0.104639
0.106145
0.113506
0.132075
0.166620
0.215720
0.278871
0.350638
0.425417
0.498020
0.559081
0.598394
0.608180
0.583421
0.525790
0.439134
0.329225
0.206602
0.082641
-0.029610
-0.123041
-0.191379
-0.230776
-0.241398
-0.226761
-0.189873
-0.140105
-0.085485
-0.032705
0.012463
0.049099
0.075029
0.091507
0.100959
0.106145
0.109825
0.111666
0.112920
0.115011
0.119612
0.124463
0.130235
0.134584
0.139436
0.144956
0.149473
0.153739
0.157754
0.162020
0.165031
0.167540
0.168126
0.166871
0.163860
0.160765
0.157168
0.152233
0.146462
0.140690
0.136090
0.133664
0.131489
0.129984
0.129398
0.128478
0.129649
0.131155
0.134250
0.137595
0.140941
0.145876
0.151982
0.158674
0.165951
0.172977
0.180589
0.188870
0.195896
0.202922
0.208693
0.213879
0.218145
0.221826
0.225506
0.227597
0.230943
0.236212
0.242569
0.251101
0.261808
0.271594
0.282217
0.290498
0.294429
0.292589
0.284057
0.269168
0.246835
0.219651
0.187949
0.155328
0.124212
0.096359
0.073858
0.057297
0.045168
0.037807
0.035047
0.035633
0.037807
0.039648
0.040819
0.041739
0.041488
0.042073
0.042408
0.043328
0.045419
0.047845
0.051525
0.055540
0.059137
0.062566
0.063737
0.064323
0.063737
0.062566
0.058551
0.054871
0.050605
0.046674
0.044248
0.041739
0.040233
0.040233
0.039648
0.040568
0.042659
0.045419
0.048765
0.052445
0.057966
0.064072
0.069843
0.074109
0.078124
0.080550
0.080801
0.079044
0.075615
0.071349
0.067418
0.065243
0.063737
0.064323
0.066832
0.072269
0.078375
0.085987
0.093013
0.100039
0.105894
0.109240
0.110411
0.109825
0.107651
0.105225
0.103134
0.101294
0.101879
0.102799
0.105225
0.108571
0.111666
0.113171
0.112920
0.111331
0.108905
0.106145
0.103134
0.101294
0.101294
0.102799
0.105560
0.109240
0.112251
0.115011
0.117772
0.118692
0.119277
0.119277
0.119863
0.120197
0.121117
0.122623
0.123878
0.124798
0.124463
0.122958
0.119277
0.113506
0.106480
0.098199
0.090336
0.083310
0.077790
0.073524
0.070178
0.068338
0.068589
0.070178
0.072269
0.073858
0.076535
0.079881
0.083561
0.086321
0.090002
0.094268
0.097948
0.101294
0.105225
0.108905
0.112586
0.115011
0.116852
0.118357
0.117772
0.115346
0.110745
0.104974
0.098199
0.090922
0.084481
0.078375
0.073189
0.069509
0.067752
0.067083
0.067083
0.068923
0.070429
0.072269
0.074695
0.077790
0.079630
0.079295
0.077204
0.073524
0.068923
0.062817
0.056460
0.050354
0.044834
0.043579
0.042993
0.045419
0.047845
0.050354
0.051860
0.054285
0.063152
0.081721
0.115346
0.165951
0.229772
0.302710
0.379328
0.454358
0.517509
0.558412
0.567612
0.541683
0.480287
0.389031
0.273685
0.144287
0.014638
-0.104723
-0.204511
-0.277115
-0.318602
-0.328723
-0.308900
-0.266492
-0.208191
-0.143200
-0.079044
-0.022919
0.022584
0.057046
0.080215
0.095522
0.104974
0.108905
0.111080
0.112000
0.113171
0.112920
0.113506
0.112920
0.110411
0.107400
0.104305
0.101294
0.098533
0.096693
0.095773
0.097279
0.099119
0.103385
0.108320
0.116266
0.124798
0.132409
0.139770
0.146462
0.150728
0.153739
0.154408
0.154073
0.152819
0.151982
0.152233
0.154408
0.157754
0.162605
0.167206
0.172726
0.178498
0.184018
0.190124
0.195310
0.199827
0.204762
0.209279
0.213879
0.219400
0.224920
0.229437
0.234623
0.239224
0.245330
0.251770
0.259382
0.267579
0.277366
0.288658
0.299615
0.310322
0.319522
0.325294
0.327385
0.324374
0.315842
0.302124
0.283137
0.259047
0.232783
0.205013
0.177912
0.152568
0.130569
0.112586
0.098868
0.090002
0.085150
0.082975
0.083896
0.085987
0.089416
0.091842
0.093933
0.095188
0.095773
0.095188
0.094268
0.092762
0.090587
0.087827
0.085150
0.081470
0.079630
0.078375
0.077455
0.078124
0.079044
0.080801
0.081721
0.083310
0.084230
0.084481
0.083896
0.082975
0.081470
0.079295
0.077455
0.075364
0.073189
0.071349
0.069843
0.068338
0.066163
0.064657
0.063403
0.063737
0.064657
0.066832
0.068923
0.072269
0.076869
0.081135
0.084230
0.086907
0.088496
0.088496
0.088161
0.086656
0.084481
0.081470
0.078375
0.075615
0.074695
0.073858
0.073189
0.073524
0.074109
0.075949
0.078375
0.080215
0.082390
0.084816
0.087576
0.090002
0.090587
0.089416
0.087576
0.085987
0.084230
0.082055
0.080215
0.078124
0.076869
0.076535
0.076535
0.076535
0.076535
0.076535
0.076869
0.077455
0.079295
0.081135
0.084230
0.086907
0.088747
0.089667
0.090002
0.088747
0.087576
0.086321
0.084816
0.083896
0.084816
0.086907
0.090336
0.093682
0.097948
0.102799
0.108905
0.116517
0.123543
0.129649
0.135170
0.141527
0.148553
0.154073
0.159845
0.164780
0.169046
0.174566
0.177243
0.177243
0.174817
0.168711
0.160765
0.150393
0.138516
0.127558
0.116852
0.108320
0.102799
0.099453
0.098533
0.097948
0.098868
0.099119
0.099119
0.099119
0.099788
0.099119
0.097279
0.095773
0.093933
0.091842
0.088747
0.085401
0.082641
0.080215
0.077790
0.074695
0.074109
0.074109
0.075615
0.077455
0.080215
0.081721
0.080801
0.081721
0.089667
0.110160
0.145876
0.197401
0.262393
0.335666
0.410444
0.481542
0.537417
0.570373
0.571544
0.538588
0.473596
0.381754
0.271260
0.149222
0.028356
-0.081554
-0.172726
-0.239558
-0.279540
-0.293342
-0.280795
-0.247254
-0.198070
-0.142530
-0.087660
-0.038477
0.000920
0.029861
0.049099
0.059471
0.063152
0.061312
0.058217
0.054285
0.051525
0.049685
0.048514
0.048514
0.049685
0.050940
0.052111
0.053951
0.055205
0.055540
0.055791
0.055540
0.055205
0.054620
0.053951
0.053700
0.054285
0.055791
0.059137
0.061897
0.064323
0.067083
0.069258
0.070429
0.071098
0.070763
0.069509
0.068003
0.067083
0.067752
0.070429
0.073189
0.076535
0.079630
0.082975
0.087576
0.092427
0.097028
0.101879
0.107400
0.113506
0.120532
0.128144
0.135504
0.143116
0.150142
0.157168
0.164445
0.171806
0.180338
0.190710
0.201416
0.211788
0.220571
0.227346
0.231277
0.229437
0.220905
0.205933
0.183349
0.157168
0.126889
0.095188
0.064323
0.036553
0.014303
-0.001589
-0.011292
-0.014052
-0.013467
-0.009201
-0.002175
0.005186
0.011878
0.017064
0.020409
0.022249
0.023755
0.023755
0.023504
0.022835
0.020995
0.019489
0.018235
0.017984
0.017398
0.017398
0.017649
0.018235
0.019489
0.020409
0.020995
0.022835
0.024675
0.027101
0.028941
0.029276
0.027435
0.025595
0.022835
0.019489
0.015223
0.010372
0.005437
0.003011
0.001757
0.003011
0.005771
0.009703
0.013049
0.017064
0.020075
0.023170
0.026515
0.029527
0.030781
0.030781
0.029861
0.028690
0.025930
0.023170
0.020075
0.018235
0.017064
0.016729
0.018904
0.022249
0.025930
0.031367
0.036302
0.041488
0.044499
0.046005
0.047594
0.048765
0.049099
0.047594
0.046674
0.044834
0.043579
0.042659
0.042993
0.042993
0.043328
0.045168
0.047259
0.051860
0.056460
0.061646
0.066497
0.071098
0.074695
0.076869
0.079044
0.080215
0.080215
0.079630
0.079881
0.080215
0.080801
0.081721
0.083561
0.085987
0.087827
0.090587
0.093682
0.096693
0.101294
0.106814
0.112000
0.114426
0.116517
0.118357
0.118692
0.115931
0.111331
0.106480
0.102214
0.100039
0.099453
0.099788
0.100959
0.103385
0.106145
0.109240
0.111080
0.111080
0.109825
0.107985
0.106814
0.105560
0.104639
0.104639
0.105560
0.107651
0.110160
0.112586
0.114677
0.115931
0.115931
0.116266
0.116266
0.115931
0.115011
0.112586
0.110411
0.107985
0.104054
0.099453
0.093933
0.088496
0.083310
0.079881
0.077455
0.077204
0.079295
0.084230
0.090922
0.099119
0.107985
0.115931
0.122623
0.127558
0.130235
0.131155
0.129984
0.127558
0.124798
0.121452
0.119277
0.118106
0.118692
0.120532
0.124463
0.130569
0.139436
0.149222
0.158005
0.164111
0.166871
0.167206
0.162605
0.154994
0.144287
0.132409
0.120197
0.109491
0.102214
0.098199
0.097613
0.099453
0.103134
0.106814
0.111666
0.116517
0.120783
0.123878
0.125969
0.126638
0.126638
0.125718
0.123878
0.122038
0.120783
0.119863
0.119612
0.119863
0.121117
0.122038
0.123543
0.124212
0.124463
0.124798
0.124463
0.123292
0.121452
0.118357
0.118106
0.125718
0.144622
0.179083
0.229772
0.292924
0.362516
0.433614
0.498606
0.548960
0.575559
0.571293
0.533987
0.466904
0.374142
0.260888
0.137261
0.015223
-0.093431
-0.184353
-0.251770
-0.292087
-0.303965
-0.289661
-0.254280
-0.205682
-0.149557
-0.094017
-0.045168
-0.005521
0.023504
0.042993
0.054285
0.057631
0.056460
0.052445
0.048179
0.044834
0.042993
0.041739
0.041739
0.042993
0.046339
0.050940
0.056460
0.061646
0.066832
0.072018
0.075364
0.077790
0.078375
0.077204
0.074109
0.070763
0.066832
0.062817
0.059806
0.058551
0.059137
0.062232
0.065912
0.070763
0.075364
0.079630
0.083896
0.088747
0.093013
0.095773
0.097613
0.098199
0.098533
0.098199
0.098533
0.100374
0.101879
0.104639
0.108571
0.114091
0.120197
0.126638
0.133330
0.139436
0.144622
0.149222
0.153739
0.159259
0.165031
0.172057
0.179418
0.187615
0.194976
0.201416
0.204762
0.204762
0.200747
0.192801
0.179752
0.161685
0.140021
0.115011
0.090922
0.067752
0.046925
0.029276
0.014889
0.004517
-0.000920
-0.003429
-0.004935
-0.004266
-0.003095
-0.001589
0.000000
0.001171
0.001171
0.000251
-0.001589
-0.003095
-0.004600
-0.004600
-0.005521
-0.005521
-0.004935
-0.002175
0.000251
0.003346
0.006106
0.008532
0.010037
0.011292
0.012798
0.013969
0.015558
0.017984
0.020409
0.023755
0.026515
0.029861
0.032621
0.034462
0.035633
0.036887
0.038142
0.039648
0.039982
0.040568
0.041488
0.043579
0.046674
0.049099
0.050354
0.051525
0.050940
0.050605
0.049099
0.046674
0.043579
0.039982
0.036302
0.034127
0.032956
0.032036
0.031701
0.032621
0.033207
0.033542
0.033876
0.034796
0.035633
0.035633
0.035047
0.034127
0.033876
0.032287
0.030447
0.028356
0.026515
0.025595
0.025010
0.026515
0.029276
0.033207
0.036887
0.039648
0.042659
0.044499
0.045419
0.045168
0.044834
0.045168
0.045754
0.048179
0.050605
0.052780
0.055791
0.057966
0.058886
0.057966
0.055540
0.052780
0.049434
0.046339
0.044248
0.042993
0.043328
0.044834
0.047845
0.051860
0.056460
0.060726
0.064657
0.068003
0.069509
0.069509
0.068003
0.064992
0.061897
0.059137
0.056460
0.054871
0.055205
0.056711
0.059471
0.063403
0.069843
0.075364
0.079881
0.082975
0.084230
0.084481
0.083561
0.081470
0.077790
0.073858
0.070429
0.068338
0.067752
0.068589
0.070763
0.073524
0.076869
0.080801
0.085150
0.088747
0.092093
0.095773
0.098868
0.101294
0.102214
0.101628
0.099453
0.095188
0.089416
0.082055
0.074695
0.066497
0.057631
0.049685
0.042408
0.036302
0.031701
0.028356
0.025010
0.023504
0.023755
0.025261
0.027435
0.029276
0.032036
0.035047
0.037222
0.037473
0.036887
0.035047
0.031701
0.027770
0.024090
0.021329
0.019155
0.017984
0.017398
0.017649
0.019155
0.020409
0.022249
0.024675
0.030196
0.043579
0.069258
0.111080
0.169046
0.238304
0.313082
0.388446
0.457452
0.510483
0.538588
0.533987
0.494340
0.422322
0.322534
0.203173
0.074109
-0.053114
-0.165784
-0.255451
-0.318017
-0.349133
-0.350387
-0.323788
-0.276864
-0.218229
-0.155328
-0.095857
-0.043997
-0.004600
0.023504
0.040819
0.047845
0.048765
0.046674
0.042659
0.037473
0.034462
0.033207
0.034127
0.036887
0.041739
0.045419
0.050940
0.055791
0.060726
0.064657
0.066497
0.068338
0.067752
0.066832
0.065243
0.064072
0.062566
0.062232
0.062566
0.063152
0.065577
0.070178
0.075615
0.081470
0.086321
0.090002
0.092762
0.094853
0.095773
0.095522
0.093682
0.092093
0.090922
0.090922
0.091842
0.093347
0.095773
0.099453
0.104054
0.109825
0.115346
0.121703
0.127223
0.133664
0.140356
0.146462
0.152233
0.159259
0.167540
0.176323
0.185858
0.195310
0.203842
0.210868
0.216054
0.217225
0.214465
0.206853
0.195896
0.180003
0.161434
0.140021
0.117186
0.093933
0.071349
0.050354
0.031367
0.015558
0.004266
-0.003429
-0.007946
-0.009535
-0.009535
-0.007695
-0.005186
-0.003429
-0.001840
-0.001589
-0.000669
0.000586
0.001757
0.003931
0.005437
0.007277
0.009452
0.011543
0.013383
0.013969
0.015223
0.014889
0.013969
0.014303
0.015558
0.015558
0.015809
0.014889
0.012798
0.009452
0.005437
0.001757
-0.002509
-0.006441
-0.009201
-0.010707
-0.011041
-0.009201
-0.005521
-0.000920
0.003011
0.007277
0.012463
0.016729
0.020995
0.024341
0.027101
0.027770
0.027101
0.025595
0.022835
0.018569
0.014303
0.010957
0.008783
0.008532
0.009452
0.011543
0.014638
0.018904
0.022584
0.025595
0.026850
0.027101
0.026850
0.024341
0.021664
0.017984
0.015558
0.013383
0.011543
0.010623
0.010957
0.012212
0.014303
0.017064
0.020409
0.022835
0.026181
0.028690
0.030196
0.031701
0.032621
0.033207
0.032956
0.031116
0.028941
0.025930
0.022835
0.020075
0.017064
0.014889
0.013718
0.014638
0.016729
0.020075
0.024090
0.027435
0.031116
0.033207
0.034127
0.033542
0.032621
0.030196
0.028021
0.024090
0.021329
0.019489
0.017398
0.016143
0.015809
0.015809
0.016729
0.018904
0.020995
0.023170
0.024675
0.025930
0.027435
0.029527
0.030781
0.031116
0.031116
0.030196
0.029276
0.029276
0.028690
0.029276
0.030447
0.032621
0.035382
0.037807
0.041488
0.044834
0.048514
0.052111
0.054871
0.058886
0.064323
0.070429
0.075949
0.078710
0.079295
0.076869
0.072604
0.063737
0.053031
0.040568
0.028690
0.018569
0.011543
0.005771
0.003011
0.003597
0.006106
0.009703
0.013383
0.017984
0.020744
0.022835
0.024090
0.025010
0.025010
0.024090
0.023170
0.021664
0.021329
0.020995
0.019489
0.018235
0.016729
0.015809
0.013718
0.011543
0.008783
0.006692
0.007277
0.014889
0.034796
0.070429
0.122372
0.186695
0.258713
0.333826
0.405509
0.464730
0.503541
0.512323
0.486394
0.427173
0.340266
0.231612
0.109240
-0.014052
-0.127558
-0.222829
-0.293007
-0.333575
-0.343947
-0.326883
-0.286901
-0.232616
-0.173061
-0.115095
-0.063821
-0.023504
0.004266
0.020409
0.026850
0.026181
0.022584
0.017398
0.012463
0.010037
0.009703
0.011878
0.017649
0.025595
0.034127
0.040819
0.046674
0.051274
0.053365
0.054285
0.053365
0.051274
0.048514
0.045754
0.045168
0.045754
0.047259
0.049434
0.052780
0.056711
0.061312
0.064323
0.067083
0.069509
0.071683
0.073858
0.075364
0.076284
0.076535
0.077790
0.079044
0.081135
0.083561
0.085987
0.089416
0.094268
0.099788
0.105560
0.111666
0.118943
0.125969
0.132995
0.139770
0.146713
0.153488
0.160179
0.166871
0.173312
0.180589
0.187949
0.196230
0.204762
0.212039
0.217560
0.220320
0.218480
0.212374
0.201416
0.184938
0.164780
0.141527
0.115597
0.090336
0.066832
0.046674
0.029276
0.014303
0.002677
-0.004600
-0.009201
-0.011961
-0.013467
-0.014721
-0.015307
-0.014972
-0.013801
-0.012881
-0.012212
-0.011961
-0.012212
-0.011961
-0.012212
-0.012881
-0.013467
-0.014052
-0.014387
-0.014972
-0.014721
-0.014052
-0.013132
-0.012212
-0.010707
-0.009201
-0.007361
-0.005855
-0.004935
-0.004266
-0.003680
-0.004015
-0.005186
-0.005855
-0.006441
-0.007695
-0.009535
-0.010707
-0.010707
-0.009201
-0.006441
-0.002175
0.001757
0.004851
0.007612
0.009703
0.010372
0.009703
0.008532
0.006692
0.004517
0.003346
0.002677
0.003346
0.004851
0.007863
0.010957
0.013383
0.016729
0.020075
0.021915
0.023170
0.024090
0.023755
0.023170
0.022835
0.022584
0.021915
0.022584
0.023504
0.024675
0.026181
0.026850
0.027101
0.026850
0.026515
0.026515
0.026515
0.026850
0.026850
0.028021
0.028690
0.028690
0.028941
0.028690
0.027770
0.026850
0.025930
0.025261
0.025595
0.025930
0.025930
0.026515
0.025930
0.024675
0.022249
0.020075
0.017984
0.016478
0.015223
0.014303
0.015223
0.016729
0.019155
0.021915
0.024675
0.026515
0.028356
0.029527
0.030196
0.031116
0.030781
0.031701
0.032621
0.033542
0.035047
0.037222
0.040819
0.041739
0.042993
0.042659
0.041739
0.041153
0.040819
0.039062
0.036553
0.034462
0.032956
0.031701
0.031367
0.031116
0.030447
0.030196
0.029527
0.029527
0.030447
0.031701
0.032621
0.034796
0.035633
0.036553
0.037222
0.038142
0.040568
0.043579
0.046674
0.049099
0.050940
0.053365
0.054871
0.056460
0.057046
0.057046
0.057297
0.059471
0.063152
0.068003
0.072938
0.078124
0.080550
0.080801
0.078710
0.074109
0.067083
0.058551
0.048765
0.038727
0.029861
0.022584
0.017984
0.015558
0.015223
0.016143
0.017649
0.020995
0.023504
0.024341
0.024090
0.022584
0.021329
0.018904
0.016143
0.014303
0.013383
0.014638
0.017984
0.020995
0.024090
0.026850
0.029527
0.032036
0.033542
0.032956
0.031116
0.029861
0.034796
0.051525
0.082641
0.130235
0.191044
0.259968
0.332320
0.402498
0.461049
0.498940
0.508058
0.484302
0.429682
0.346958
0.241398
0.122038
0.000920
-0.111749
-0.206937
-0.278620
-0.322283
-0.336000
-0.321697
-0.283890
-0.231026
-0.170300
-0.110829
-0.057715
-0.015892
0.013383
0.031116
0.039648
0.040819
0.037807
0.032956
0.026850
0.022835
0.019489
0.018569
0.018904
0.020744
0.023755
0.027435
0.032621
0.038142
0.043579
0.048179
0.051860
0.055791
0.059806
0.062232
0.063737
0.064992
0.065577
0.065243
0.064992
0.065912
0.067083
0.067418
0.067418
0.067752
0.067083
0.067752
0.067752
0.067083
0.067418
0.067418
0.068338
0.069258
0.071349
0.074444
0.077204
0.080215
0.084481
0.088747
0.093682
0.099788
0.106480
0.113171
0.120783
0.128729
0.136090
0.143116
0.151313
0.159845
0.167791
0.174566
0.181843
0.188870
0.195310
0.200162
0.202587
0.202587
0.199242
0.192550
0.180338
0.163274
0.141861
0.117437
0.091507
0.065912
0.042408
0.021915
0.006106
-0.004600
-0.011041
-0.013801
-0.013132
-0.012547
-0.011961
-0.011961
-0.012547
-0.012881
-0.014721
-0.015892
-0.017733
-0.019238
-0.020158
-0.020493
-0.020828
-0.020828
-0.019573
-0.017733
-0.014972
-0.011292
-0.007361
-0.003429
0.000000
0.001506
0.002091
0.001757
0.000920
-0.000669
-0.000920
-0.001255
-0.000920
0.000920
0.003597
0.006106
0.007277
0.006692
0.003346
-0.000920
-0.005855
-0.010121
-0.013801
-0.017147
-0.018653
-0.016478
-0.013132
-0.008281
-0.002760
0.004266
0.010957
0.015558
0.019155
0.020075
0.019489
0.017984
0.015809
0.013969
0.011878
0.011292
0.011292
0.012212
0.013718
0.014638
0.015558
0.016478
0.015809
0.015558
0.015558
0.017064
0.019824
0.021664
0.023170
0.024090
0.024090
0.022835
0.020744
0.018235
0.015558
0.013383
0.011878
0.011878
0.011878
0.011292
0.010623
0.008783
0.006692
0.004266
0.002426
0.001757
0.004851
0.008783
0.013383
0.017984
0.023170
0.027101
0.029861
0.029861
0.027101
0.022584
0.017984
0.012798
0.008783
0.006106
0.004851
0.005186
0.007277
0.011292
0.013718
0.016729
0.019824
0.021664
0.022584
0.023170
0.022584
0.020995
0.019824
0.017984
0.014889
0.011878
0.009117
0.005771
0.003931
0.003346
0.004851
0.006942
0.010957
0.016478
0.022835
0.028690
0.033207
0.035967
0.035967
0.034796
0.032036
0.027770
0.023504
0.020075
0.017398
0.017649
0.018569
0.020409
0.022835
0.025261
0.027770
0.031367
0.033876
0.035967
0.037473
0.037473
0.037222
0.037807
0.038727
0.039062
0.041739
0.045168
0.050019
0.056126
0.061646
0.065577
0.068338
0.068003
0.065577
0.059806
0.050940
0.040233
0.028941
0.017649
0.007863
-0.000335
-0.004600
-0.005186
-0.002509
0.001506
0.006357
0.011878
0.017064
0.020409
0.021329
0.019155
0.014638
0.010037
0.006942
0.004517
0.003597
0.003346
0.003597
0.004851
0.005771
0.005186
0.003011
-0.000669
-0.005186
-0.008281
-0.006441
0.006357
0.034462
0.079630
0.138850
0.208108
0.281631
0.355155
0.420231
0.468075
0.490074
0.480037
0.436709
0.363436
0.264819
0.148887
0.026515
-0.092176
-0.197150
-0.279875
-0.334495
-0.357999
-0.351558
-0.319272
-0.268248
-0.206351
-0.144120
-0.086739
-0.039397
-0.003680
0.018569
0.030781
0.033876
0.033207
0.029861
0.026515
0.024675
0.022584
0.020744
0.019824
0.019155
0.018235
0.017649
0.017649
0.017064
0.018569
0.022584
0.028941
0.035633
0.041153
0.044834
0.046339
0.046674
0.044248
0.039648
0.034462
0.028690
0.025261
0.022249
0.022249
0.025261
0.029527
0.033876
0.037807
0.041739
0.045168
0.048514
0.052445
0.055791
0.058886
0.062566
0.066832
0.071098
0.075615
0.080215
0.083896
0.086321
0.088496
0.090587
0.093933
0.096693
0.099453
0.102465
0.105894
0.111080
0.117186
0.123543
0.132744
0.142781
0.153153
0.163525
0.171806
0.176992
0.178163
0.173897
0.163860
0.147633
0.127558
0.104639
0.081135
0.058217
0.037222
0.020409
0.007612
-0.002760
-0.009201
-0.013132
-0.015558
-0.017398
-0.019238
-0.020828
-0.022333
-0.023839
-0.024173
-0.025344
-0.025679
-0.025093
-0.024759
-0.024173
-0.022584
-0.020828
-0.019238
-0.018318
-0.016813
-0.014721
-0.011627
-0.008866
-0.006775
-0.005855
-0.004935
-0.005521
-0.006441
-0.009201
-0.012547
-0.015558
-0.017733
-0.020158
-0.021413
-0.022919
-0.023253
-0.022919
-0.021999
-0.020828
-0.019573
-0.017398
-0.015307
-0.011961
-0.007695
-0.003680
-0.000335
0.003346
0.005771
0.007863
0.009452
0.011543
0.013718
0.015223
0.017064
0.019489
0.021915
0.023170
0.023170
0.022249
0.020075
0.016478
0.013383
0.009703
0.007277
0.006106
0.005771
0.007277
0.010372
0.015223
0.019824
0.023755
0.026181
0.027770
0.028356
0.027770
0.026515
0.024090
0.020744
0.017649
0.014889
0.012212
0.009703
0.006692
0.004851
0.003011
0.002091
0.001506
0.002677
0.004851
0.007277
0.010037
0.012798
0.016143
0.017984
0.018904
0.019155
0.018904
0.017649
0.016478
0.017398
0.019489
0.021664
0.023755
0.027101
0.031701
0.036302
0.039648
0.040819
0.040233
0.038393
0.035047
0.031116
0.026515
0.022249
0.017984
0.014638
0.012463
0.011878
0.013049
0.016143
0.019489
0.023170
0.026515
0.030196
0.035047
0.039648
0.043328
0.047594
0.052780
0.058217
0.063152
0.066832
0.069258
0.067418
0.062817
0.055540
0.045419
0.032956
0.020744
0.009703
0.001171
-0.004266
-0.006106
-0.006441
-0.005186
-0.003680
-0.000920
0.000586
0.000586
-0.000669
-0.002760
-0.004600
-0.006441
-0.007695
-0.007946
-0.007361
-0.006775
-0.005521
-0.004935
-0.003680
-0.002760
-0.001840
-0.000335
0.001506
0.001757
0.003931
0.009452
0.024675
0.051860
0.093347
0.146713
0.209028
0.275860
0.342357
0.403418
0.448586
0.469330
0.459878
0.416801
0.342943
0.244410
0.126889
0.002091
-0.118441
-0.223415
-0.304885
-0.357079
-0.378157
-0.368706
-0.332069
-0.277784
-0.213377
-0.149891
-0.093096
-0.047677
-0.014972
0.004517
0.013383
0.013718
0.008783
0.001506
-0.004935
-0.009786
-0.011292
-0.009786
-0.005186
0.002677
0.010372
0.017064
0.022584
0.027101
0.029861
0.030781
0.029527
0.027101
0.024090
0.021329
0.019155
0.018904
0.021915
0.026850
0.032287
0.037473
0.042408
0.046339
0.050019
0.050354
0.049099
0.047259
0.044499
0.041488
0.039982
0.039062
0.038727
0.039313
0.040233
0.039982
0.041153
0.044499
0.049434
0.055540
0.062566
0.071349
0.081470
0.091507
0.100708
0.107651
0.112920
0.116852
0.118692
0.119863
0.121117
0.123543
0.127558
0.132075
0.138516
0.145207
0.151062
0.154073
0.154408
0.149808
0.140690
0.125718
0.106814
0.085401
0.062566
0.039648
0.017649
-0.000920
-0.014972
-0.023839
-0.029025
-0.031785
-0.032120
-0.032120
-0.031199
-0.031450
-0.032956
-0.035465
-0.038142
-0.042742
-0.046423
-0.049183
-0.049434
-0.047008
-0.043077
-0.038477
-0.033625
-0.029025
-0.024173
-0.018987
-0.015307
-0.014721
-0.015558
-0.018067
-0.021413
-0.025679
-0.029025
-0.032120
-0.034545
-0.036385
-0.036051
-0.034211
-0.031199
-0.027519
-0.024759
-0.022333
-0.019573
-0.016813
-0.015558
-0.014052
-0.012881
-0.009786
-0.007946
-0.006441
-0.004935
-0.003429
-0.002509
-0.002760
-0.004015
-0.006441
-0.009201
-0.012547
-0.014972
-0.017733
-0.019238
-0.020158
-0.019238
-0.017398
-0.014721
-0.012547
-0.010121
-0.007946
-0.007026
-0.007946
-0.008866
-0.008866
-0.008866
-0.007026
-0.004266
-0.000335
0.003346
0.006357
0.008783
0.010957
0.010372
0.006942
0.002091
-0.003680
-0.009786
-0.015307
-0.019907
-0.023253
-0.023253
-0.020493
-0.016227
-0.011041
-0.007026
-0.003429
-0.000920
0.000920
0.001506
0.000251
-0.001255
-0.002509
-0.003429
-0.003429
-0.002760
-0.001589
0.000251
0.002677
0.006357
0.010957
0.015558
0.020995
0.025930
0.030447
0.033876
0.036302
0.037473
0.038142
0.038393
0.038727
0.039648
0.040233
0.040568
0.039648
0.035967
0.030447
0.022584
0.013383
0.004851
-0.004266
-0.011292
-0.016813
-0.021413
-0.024173
-0.026264
-0.028105
-0.028690
-0.030530
-0.033291
-0.035716
-0.037306
-0.037556
-0.036051
-0.034545
-0.031785
-0.027185
-0.022333
-0.017733
-0.014387
-0.012881
-0.011961
-0.012547
-0.014387
-0.018318
-0.022919
-0.024424
-0.015558
0.006357
0.046005
0.101294
0.167540
0.240729
0.313667
0.380834
0.431774
0.456783
0.448837
0.407098
0.333240
0.232198
0.112251
-0.014972
-0.137679
-0.245664
-0.330229
-0.385769
-0.410193
-0.405342
-0.373557
-0.324123
-0.263397
-0.203006
-0.147465
-0.101963
-0.068672
-0.048598
-0.037556
-0.032956
-0.033291
-0.034211
-0.035716
-0.036971
-0.037556
-0.036971
-0.036051
-0.034545
-0.034211
-0.033625
-0.033876
-0.033876
-0.032120
-0.029025
-0.024759
-0.019573
-0.014972
-0.010707
-0.006775
-0.003429
-0.001255
-0.001255
-0.002509
-0.003095
-0.004015
-0.004935
-0.005186
-0.004015
-0.002760
-0.001589
-0.001840
-0.001840
-0.000335
0.000920
0.001757
0.002426
0.003931
0.006692
0.010037
0.013718
0.017984
0.022835
0.028690
0.034127
0.040233
0.046339
0.052780
0.058886
0.064657
0.071683
0.078375
0.086656
0.096108
0.106145
0.116852
0.127223
0.135755
0.140021
0.139436
0.133915
0.124463
0.109240
0.090336
0.069843
0.048514
0.027770
0.006942
-0.013467
-0.032370
-0.048848
-0.062566
-0.074527
-0.083310
-0.088496
-0.090336
-0.090336
-0.087660
-0.082725
-0.077873
-0.073273
-0.069927
-0.067752
-0.067501
-0.067501
-0.068672
-0.070261
-0.072687
-0.076618
-0.080299
-0.083645
-0.086739
-0.089416
-0.090336
-0.088245
-0.083645
-0.076618
-0.069341
-0.061646
-0.053783
-0.047008
-0.042742
-0.042157
-0.044248
-0.049769
-0.057380
-0.064741
-0.072938
-0.079964
-0.085819
-0.089751
-0.091256
-0.090671
-0.087660
-0.083645
-0.077204
-0.070261
-0.062901
-0.054955
-0.047343
-0.041822
-0.037556
-0.035465
-0.034545
-0.035465
-0.037556
-0.040317
-0.042742
-0.044583
-0.045503
-0.045837
-0.045503
-0.045503
-0.046423
-0.047343
-0.049434
-0.052529
-0.054034
-0.053783
-0.053449
-0.051943
-0.049769
-0.046757
-0.043662
-0.041237
-0.038142
-0.035131
-0.032370
-0.029025
-0.026013
-0.023504
-0.021413
-0.019573
-0.018318
-0.018653
-0.021664
-0.026850
-0.033291
-0.039062
-0.043997
-0.044248
-0.040317
-0.030530
-0.018067
-0.003680
0.011878
0.028356
0.042659
0.052111
0.056460
0.056711
0.054620
0.051274
0.046674
0.040233
0.032956
0.026850
0.019824
0.011878
0.002426
-0.007026
-0.016227
-0.022584
-0.027519
-0.031785
-0.035131
-0.036971
-0.037556
-0.037306
-0.037306
-0.036636
-0.035465
-0.033291
-0.032120
-0.030279
-0.029945
-0.030530
-0.032370
-0.034545
-0.037891
-0.041571
-0.044248
-0.045837
-0.044583
-0.041822
-0.037556
-0.033291
-0.027185
-0.017147
0.000251
0.027101
0.068003
0.121703
0.184938
0.252941
0.320108
0.379579
0.423242
0.443986
0.435789
0.396392
0.329225
0.238304
0.129984
0.013718
-0.098282
-0.197820
-0.276864
-0.332069
-0.361679
-0.366531
-0.348213
-0.311911
-0.264903
-0.213963
-0.164529
-0.122707
-0.089165
-0.064741
-0.048263
-0.037891
-0.032370
-0.029359
-0.027519
-0.026013
-0.022919
-0.018318
-0.013132
-0.007946
-0.002175
0.005437
0.012798
0.020075
0.026181
0.030447
0.032621
0.032956
0.032036
0.029276
0.024090
0.018235
0.012463
0.007612
0.005437
0.004517
0.006106
0.008783
0.013049
0.018569
0.023504
0.028690
0.033542
0.037473
0.041153
0.043913
0.047259
0.049685
0.052111
0.054285
0.057046
0.059137
0.061897
0.065577
0.070429
0.075949
0.082055
0.088747
0.096108
0.104305
0.112920
0.121452
0.129064
0.137595
0.146462
0.154994
0.164780
0.173646
0.181509
0.187364
0.189204
0.186444
0.178498
0.166620
0.149473
0.129398
0.106480
0.082055
0.057631
0.034127
0.012798
-0.006441
-0.024424
-0.039397
-0.049769
-0.056460
-0.059890
-0.059555
-0.056209
-0.051023
-0.045503
-0.040902
-0.035716
-0.031450
-0.028105
-0.025344
-0.022584
-0.020493
-0.019238
-0.017733
-0.017398
-0.018653
-0.021413
-0.027185
-0.032370
-0.036636
-0.040651
-0.042742
-0.043077
-0.041237
-0.037306
-0.032705
-0.028690
-0.025679
-0.022919
-0.021078
-0.018987
-0.017733
-0.018067
-0.018318
-0.018653
-0.019238
-0.020158
-0.021999
-0.024173
-0.026599
-0.029025
-0.030530
-0.032120
-0.032705
-0.032370
-0.030530
-0.029025
-0.027770
-0.025679
-0.024173
-0.021664
-0.019573
-0.017733
-0.014721
-0.011627
-0.009201
-0.007361
-0.006441
-0.005186
-0.003680
-0.001840
0.000251
0.000586
0.000920
0.001171
0.000920
-0.000920
-0.003680
-0.007695
-0.011961
-0.014972
-0.016227
-0.016478
-0.016813
-0.014972
-0.012547
-0.010121
-0.006441
-0.003680
-0.000920
0.001506
0.004517
0.010623
0.018904
0.029527
0.039982
0.049434
0.057046
0.063737
0.068589
0.070429
0.069258
0.066163
0.060726
0.054871
0.050354
0.047594
0.045168
0.041739
0.038142
0.033876
0.028356
0.022584
0.016729
0.010957
0.006942
0.004517
0.004266
0.003931
0.004851
0.005437
0.006106
0.005771
0.003597
0.000920
-0.002509
-0.004935
-0.006106
-0.007026
-0.007026
-0.007026
-0.006106
-0.005855
-0.006106
-0.007695
-0.011041
-0.015307
-0.020493
-0.026013
-0.029610
-0.027519
-0.013801
0.015558
0.060977
0.122038
0.192801
0.269754
0.346038
0.412535
0.460464
0.480957
0.468995
0.423242
0.345118
0.239558
0.114677
-0.016813
-0.143200
-0.253025
-0.339681
-0.397396
-0.421820
-0.414125
-0.378492
-0.322032
-0.255451
-0.186778
-0.125132
-0.074778
-0.035716
-0.008866
0.005186
0.010037
0.007612
0.001757
-0.004600
-0.011292
-0.016478
-0.019238
-0.020828
-0.020828
-0.019238
-0.015307
-0.010121
-0.004266
0.002426
0.008197
0.014638
0.020409
0.025010
0.028941
0.032036
0.033876
0.034127
0.034127
0.033542
0.031701
0.028690
0.026181
0.023755
0.021664
0.021915
0.023504
0.026850
0.031701
0.036887
0.040819
0.044499
0.046925
0.048514
0.049099
0.049685
0.052111
0.055791
0.062817
0.071683
0.083310
0.095773
0.108320
0.118943
0.129064
0.136341
0.141527
0.144287
0.147633
0.151313
0.154994
0.158925
0.164445
0.169631
0.172392
0.171471
0.165951
0.154994
0.139101
0.118692
0.093682
0.065912
0.038393
0.012798
-0.010121
-0.029359
-0.044248
-0.054955
-0.062315
-0.066247
-0.066832
-0.065076
-0.061981
-0.058635
-0.054369
-0.050689
-0.047677
-0.044917
-0.042742
-0.042491
-0.042491
-0.043412
-0.045168
-0.047008
-0.048848
-0.049769
-0.051023
-0.052529
-0.052529
-0.051023
-0.049434
-0.047343
-0.044248
-0.039982
-0.035465
-0.031199
-0.027770
-0.026013
-0.025344
-0.027185
-0.029610
-0.032705
-0.035716
-0.038811
-0.040317
-0.039982
-0.036971
-0.032705
-0.027770
-0.022333
-0.017398
-0.013467
-0.010707
-0.010121
-0.011041
-0.013801
-0.017398
-0.022333
-0.027770
-0.032120
-0.034796
-0.036971
-0.036971
-0.036051
-0.032120
-0.025679
-0.017398
-0.008281
0.000920
0.009452
0.017398
0.023504
0.027101
0.027101
0.024341
0.019489
0.013969
0.006942
-0.000920
-0.007026
-0.010707
-0.011627
-0.011041
-0.009201
-0.006106
-0.002760
0.001171
0.004851
0.006692
0.007612
0.007277
0.008197
0.010623
0.013969
0.017398
0.021329
0.025595
0.030447
0.035633
0.040568
0.043328
0.044834
0.046005
0.046674
0.046005
0.046674
0.047259
0.048514
0.050019
0.052111
0.053365
0.053951
0.052111
0.048179
0.041739
0.034127
0.025930
0.017984
0.011543
0.006692
0.004266
0.006106
0.009452
0.011878
0.014638
0.015809
0.015809
0.013383
0.009703
0.005771
0.000920
-0.002760
-0.006106
-0.007695
-0.008281
-0.009201
-0.009535
-0.008615
-0.008281
-0.007026
-0.005855
-0.005186
-0.004935
-0.004266
-0.000335
0.011543
0.034127
0.069509
0.118692
0.178832
0.244995
0.313082
0.378074
0.430603
0.461384
0.464730
0.434868
0.372553
0.282217
0.169631
0.044834
-0.080299
-0.195059
-0.289661
-0.357079
-0.392795
-0.395806
-0.367785
-0.315926
-0.250014
-0.178832
-0.110829
-0.052194
-0.007026
0.023170
0.039062
0.042993
0.038393
0.029276
0.019155
0.008532
0.000920
-0.003680
-0.003680
-0.001840
0.001506
0.004851
0.008197
0.011292
0.013383
0.014638
0.016478
0.017649
0.018569
0.020744
0.023170
0.026515
0.029861
0.033207
0.035633
0.038393
0.040568
0.042408
0.042408
0.041739
0.040568
0.039648
0.038393
0.037473
0.037473
0.038393
0.041153
0.044834
0.049434
0.054285
0.059806
0.066832
0.075029
0.082055
0.088747
0.094853
0.100374
0.106480
0.111080
0.114677
0.118943
0.122372
0.125718
0.129984
0.135504
0.142196
0.150728
0.158674
0.166871
0.173897
0.177243
0.176323
0.170551
0.160765
0.146462
0.128144
0.106145
0.081470
0.055791
0.031701
0.010623
-0.007361
-0.022333
-0.034211
-0.043662
-0.049769
-0.053783
-0.054620
-0.054955
-0.053783
-0.051943
-0.049769
-0.046423
-0.042742
-0.039062
-0.037306
-0.035465
-0.034545
-0.034796
-0.035465
-0.037306
-0.038477
-0.039731
-0.039731
-0.038477
-0.037556
-0.036051
-0.032705
-0.028690
-0.025679
-0.022919
-0.020493
-0.018318
-0.016813
-0.017398
-0.020158
-0.024173
-0.029025
-0.034545
-0.039982
-0.044248
-0.047928
-0.050103
-0.050689
-0.050354
-0.047928
-0.043662
-0.039982
-0.035465
-0.030865
-0.026264
-0.021664
-0.016478
-0.012212
-0.009201
-0.007026
-0.005186
-0.003095
-0.000920
0.000586
0.000251
-0.000669
-0.002175
-0.004266
-0.006106
-0.009201
-0.012212
-0.014387
-0.016478
-0.018987
-0.020493
-0.021078
-0.021664
-0.021413
-0.020493
-0.019238
-0.018653
-0.018067
-0.016478
-0.014387
-0.010372
-0.007026
-0.003429
0.002091
0.006692
0.010037
0.012798
0.013383
0.012463
0.010957
0.007612
0.003597
-0.001255
-0.004935
-0.007946
-0.009535
-0.008866
-0.008281
-0.006775
-0.004266
-0.000669
0.004517
0.009452
0.014303
0.018235
0.022584
0.025930
0.028356
0.031116
0.034462
0.037807
0.041488
0.044248
0.047594
0.049099
0.049099
0.045419
0.039982
0.031116
0.021664
0.010623
0.000251
-0.009201
-0.016478
-0.022333
-0.025344
-0.026264
-0.024759
-0.022584
-0.019573
-0.016478
-0.014052
-0.012547
-0.011292
-0.010707
-0.011292
-0.011961
-0.012881
-0.012547
-0.011627
-0.010372
-0.008866
-0.007026
-0.006775
-0.007026
-0.007946
-0.010707
-0.014721
-0.016227
-0.010121
0.007277
0.039982
0.087576
0.148887
0.214465
0.283472
0.348129
0.400992
0.431188
0.433614
0.404924
0.346372
0.261222
0.154408
0.041153
-0.076033
-0.182513
-0.272263
-0.334829
-0.371131
-0.378492
-0.359839
-0.318351
-0.264317
-0.204846
-0.146211
-0.094602
-0.052529
-0.022584
-0.003095
0.006942
0.010623
0.008783
0.003597
-0.001840
-0.008281
-0.014387
-0.018987
-0.021664
-0.022919
-0.022333
-0.018987
-0.013801
-0.008281
-0.002760
0.001757
0.006357
0.010037
0.013718
0.017064
0.019155
0.021329
0.022835
0.023755
0.024090
0.023504
0.023170
0.022835
0.022249
0.021915
0.022249
0.025261
0.029861
0.036302
0.042408
0.047594
0.052111
0.054620
0.056126
0.056126
0.055540
0.054620
0.053700
0.054285
0.056711
0.062566
0.068589
0.076869
0.085987
0.095522
0.104974
0.114426
0.123292
0.132744
0.142196
0.151062
0.158925
0.166871
0.171806
0.173646
0.171471
0.162940
0.149473
0.130904
0.108320
0.082055
0.055791
0.030447
0.007612
-0.011627
-0.027185
-0.037556
-0.043077
-0.046757
-0.047928
-0.048848
-0.049769
-0.051023
-0.052529
-0.054955
-0.058049
-0.061061
-0.063235
-0.065076
-0.066832
-0.067501
-0.067167
-0.066832
-0.066832
-0.067501
-0.069007
-0.070261
-0.071433
-0.072687
-0.072353
-0.072687
-0.072353
-0.072018
-0.070847
-0.069341
-0.066581
-0.063235
-0.060475
-0.057715
-0.055289
-0.052194
-0.049434
-0.047677
-0.045837
-0.043997
-0.043662
-0.043412
-0.041822
-0.040317
-0.038142
-0.036636
-0.036385
-0.036051
-0.036971
-0.038477
-0.040651
-0.042742
-0.043997
-0.045168
-0.044917
-0.043997
-0.041822
-0.038477
-0.034545
-0.030865
-0.027185
-0.023839
-0.020828
-0.018987
-0.017733
-0.016227
-0.015892
-0.016227
-0.017398
-0.018318
-0.018987
-0.019573
-0.019907
-0.019238
-0.018987
-0.019573
-0.018987
-0.017398
-0.016227
-0.016227
-0.017147
-0.018653
-0.020158
-0.021999
-0.023839
-0.025344
-0.027519
-0.026599
-0.024759
-0.022584
-0.018653
-0.014387
-0.009786
-0.005855
-0.002760
-0.000920
-0.000335
-0.001255
-0.002509
-0.004266
-0.006441
-0.007946
-0.008281
-0.007946
-0.007695
-0.007361
-0.007361
-0.006775
-0.004935
-0.003095
-0.001840
0.000251
0.003597
0.007277
0.010372
0.013718
0.017398
0.019489
0.021329
0.021664
0.021915
0.021329
0.020075
0.019824
0.018569
0.016143
0.013049
0.009117
0.006106
0.003597
0.000251
-0.002760
-0.003429
-0.001840
0.000920
0.004517
0.009452
0.014638
0.019489
0.023755
0.027435
0.029527
0.031367
0.034796
0.037807
0.039982
0.041488
0.042073
0.041488
0.039062
0.035047
0.029276
0.023170
0.015809
0.008197
0.002091
-0.001589
-0.003095
-0.004015
-0.004600
-0.004266
-0.002509
-0.000669
0.001171
0.003346
0.005771
0.008783
0.010957
0.012463
0.014303
0.014638
0.014303
0.012212
0.010037
0.006942
0.004517
0.002091
0.000000
-0.001589
-0.001840
-0.002509
-0.003095
-0.004935
-0.005855
-0.006106
-0.002175
0.011292
0.036887
0.078124
0.131824
0.195561
0.264233
0.331651
0.392712
0.437880
0.458624
0.448001
0.405509
0.334160
0.239558
0.127809
0.008783
-0.105894
-0.205682
-0.281715
-0.330229
-0.350053
-0.341856
-0.308230
-0.258796
-0.201165
-0.142530
-0.091005
-0.050354
-0.022333
-0.005521
0.002426
0.004517
0.002677
-0.000335
-0.002760
-0.003680
-0.002760
-0.000335
0.003011
0.006942
0.010957
0.014303
0.016478
0.017984
0.019489
0.020744
0.021329
0.021329
0.021329
0.020995
0.021329
0.021915
0.022249
0.022584
0.023504
0.025010
0.026850
0.028021
0.028941
0.029861
0.032036
0.033876
0.036553
0.039062
0.040233
0.040819
0.042408
0.043579
0.045168
0.046339
0.049099
0.053031
0.057046
0.062232
0.068923
0.076869
0.085736
0.094602
0.102465
0.110411
0.117772
0.124798
0.130569
0.136090
0.142196
0.148887
0.155579
0.162020
0.168460
0.173897
0.176992
0.176657
0.172977
0.165031
0.151648
0.132744
0.110411
0.085401
0.059806
0.034796
0.011878
-0.008281
-0.024759
-0.035131
-0.041822
-0.045837
-0.047008
-0.045837
-0.043997
-0.041822
-0.041237
-0.040902
-0.040317
-0.039731
-0.040317
-0.040317
-0.040317
-0.039982
-0.038142
-0.036636
-0.034796
-0.032705
-0.030530
-0.030279
-0.029610
-0.031199
-0.033291
-0.036971
-0.040651
-0.043412
-0.045503
-0.046088
-0.044917
-0.041571
-0.036636
-0.030279
-0.023253
-0.016478
-0.011627
-0.009201
-0.009535
-0.011961
-0.016813
-0.023253
-0.030279
-0.037306
-0.043662
-0.047008
-0.048263
-0.047677
-0.044917
-0.040902
-0.035131
-0.029610
-0.024424
-0.019238
-0.016478
-0.014972
-0.014052
-0.014387
-0.016813
-0.019573
-0.022919
-0.024759
-0.026264
-0.027185
-0.027185
-0.025093
-0.021664
-0.018067
-0.013801
-0.010707
-0.007695
-0.004935
-0.003095
-0.001255
-0.000335
-0.000669
-0.001589
-0.003429
-0.003429
-0.004015
-0.004015
-0.004935
-0.005186
-0.005186
-0.004266
-0.003429
-0.002760
-0.002175
-0.001589
0.000000
0.001171
0.001757
0.002677
0.003011
0.003597
0.003597
0.003597
0.003346
0.003597
0.005437
0.007863
0.010623
0.012463
0.013969
0.014303
0.013969
0.012463
0.010623
0.008532
0.006357
0.004517
0.004851
0.006357
0.008532
0.011878
0.014889
0.017649
0.020075
0.021664
0.021915
0.021664
0.020995
0.019489
0.017984
0.016478
0.015809
0.017064
0.018904
0.022584
0.026515
0.030196
0.034462
0.038142
0.041153
0.044248
0.046674
0.049434
0.051274
0.053951
0.056711
0.057297
0.056126
0.052780
0.046674
0.038393
0.028021
0.016478
0.006106
-0.002509
-0.008281
-0.012212
-0.013132
-0.011292
-0.008281
-0.004935
-0.000335
0.002677
0.003931
0.003931
0.001506
-0.001840
-0.005521
-0.008866
-0.011961
-0.014387
-0.016478
-0.017147
-0.017398
-0.016813
-0.015307
-0.013467
-0.012547
-0.011961
-0.012212
-0.011041
-0.006775
0.006357
0.031367
0.072269
0.124212
0.188870
0.256956
0.328974
0.391791
0.442480
0.468745
0.464730
0.428428
0.357915
0.264233
0.147633
0.025261
-0.100457
-0.204846
-0.291167
-0.346707
-0.372637
-0.368036
-0.336921
-0.286901
-0.223080
-0.163023
-0.104723
-0.060140
-0.026013
-0.004600
0.006942
0.009452
0.006357
0.001171
-0.004600
-0.008866
-0.010707
-0.008866
-0.004015
0.002677
0.010957
0.018235
0.026181
0.032036
0.035382
0.035047
0.032621
0.028941
0.024090
0.019489
0.016729
0.015809
0.016729
0.018904
0.022835
0.026850
0.032036
0.036553
0.040568
0.043913
0.046674
0.049434
0.051274
0.052780
0.053951
0.056460
0.058886
0.062566
0.065243
0.068923
0.071683
0.074695
0.077790
0.081135
0.084481
0.090002
0.095773
0.101294
0.107651
0.114426
0.122372
0.130235
0.138850
0.146127
0.153739
0.162354
0.171806
0.180923
0.190375
0.198321
0.203842
0.204427
0.199242
0.187949
0.171471
0.149808
0.122958
0.093682
0.064072
0.035967
0.011292
-0.008615
-0.022584
-0.030530
-0.034211
-0.034796
-0.033876
-0.032705
-0.031785
-0.031450
-0.031785
-0.033291
-0.035131
-0.037306
-0.038811
-0.038811
-0.037556
-0.035716
-0.033291
-0.032120
-0.030865
-0.030530
-0.029945
-0.030279
-0.031450
-0.032705
-0.032956
-0.032956
-0.032705
-0.031450
-0.030279
-0.028439
-0.026264
-0.024173
-0.023253
-0.021664
-0.020493
-0.019573
-0.018318
-0.015892
-0.013801
-0.011961
-0.010121
-0.008615
-0.008281
-0.008281
-0.009201
-0.010707
-0.012547
-0.014972
-0.016227
-0.014972
-0.014052
-0.011961
-0.010372
-0.006775
-0.002509
0.001757
0.004266
0.005186
0.005771
0.006357
0.006357
0.004851
0.003011
-0.000335
-0.003680
-0.006775
-0.008866
-0.010121
-0.010707
-0.011292
-0.011041
-0.009786
-0.007695
-0.005521
-0.002760
-0.000669
0.000586
0.002091
0.003597
0.004851
0.006357
0.007612
0.008783
0.010372
0.011543
0.013049
0.014303
0.014889
0.015223
0.015223
0.014889
0.014303
0.013383
0.010957
0.008197
0.005437
0.003931
0.002426
0.000586
-0.001255
-0.001589
-0.001255
-0.000669
0.000920
0.002091
0.004517
0.007277
0.009703
0.012463
0.014303
0.014638
0.014889
0.013718
0.011292
0.006357
0.001171
-0.003429
-0.007026
-0.010121
-0.011961
-0.012881
-0.011292
-0.009535
-0.005521
-0.000669
0.005186
0.010037
0.013718
0.016143
0.018235
0.019489
0.017398
0.013049
0.007277
0.001171
-0.004015
-0.007361
-0.010707
-0.012212
-0.011041
-0.007946
-0.004015
0.000251
0.004851
0.009703
0.014889
0.020409
0.025261
0.029276
0.033207
0.038393
0.043328
0.046674
0.046925
0.045419
0.041488
0.034796
0.026515
0.017064
0.006692
-0.002760
-0.010121
-0.013467
-0.013132
-0.010707
-0.008281
-0.004266
-0.000335
0.001506
0.000251
-0.003429
-0.007946
-0.013467
-0.018653
-0.022919
-0.024759
-0.024759
-0.022333
-0.018318
-0.014387
-0.011627
-0.010121
-0.009201
-0.008615
-0.009535
-0.011627
-0.013467
-0.014387
-0.014387
-0.014721
-0.014972
-0.011041
0.001757
0.028356
0.070429
0.126638
0.193135
0.265739
0.338426
0.404924
0.454943
0.480287
0.473930
0.435454
0.366196
0.269419
0.152568
0.027435
-0.094017
-0.201751
-0.288741
-0.347962
-0.376317
-0.372637
-0.342441
-0.291752
-0.231947
-0.169380
-0.111415
-0.064406
-0.031450
-0.011292
-0.002175
-0.001589
-0.005855
-0.012547
-0.019238
-0.026013
-0.030279
-0.032370
-0.031450
-0.027185
-0.020158
-0.012547
-0.004935
0.003346
0.010372
0.015223
0.017984
0.017984
0.015558
0.012463
0.009117
0.006692
0.004851
0.003011
0.001506
0.000920
0.001757
0.003011
0.003597
0.005771
0.008783
0.010623
0.012212
0.013969
0.015809
0.016729
0.017649
0.018235
0.019489
0.020409
0.023170
0.027770
0.035047
0.043579
0.053700
0.065243
0.075615
0.085150
0.093013
0.098533
0.101628
0.103385
0.104054
0.105225
0.107651
0.112586
0.120783
0.131489
0.143701
0.154994
0.164780
0.170551
0.171137
0.164111
0.149222
0.128144
0.101879
0.072938
0.042073
0.013969
-0.011961
-0.032705
-0.048598
-0.058300
-0.064406
-0.066581
-0.065912
-0.063821
-0.061061
-0.058300
-0.055540
-0.054034
-0.053449
-0.053449
-0.053449
-0.053114
-0.054955
-0.057715
-0.060475
-0.063235
-0.065326
-0.068087
-0.069341
-0.070847
-0.071767
-0.071182
-0.069927
-0.066247
-0.061981
-0.055540
-0.050689
-0.046757
-0.043412
-0.039982
-0.038811
-0.037891
-0.038142
-0.039982
-0.042491
-0.044917
-0.045837
-0.045837
-0.045503
-0.044583
-0.043662
-0.042491
-0.041571
-0.040651
-0.039982
-0.039397
-0.040317
-0.041822
-0.043077
-0.043997
-0.043997
-0.043077
-0.042491
-0.041571
-0.039982
-0.039062
-0.038477
-0.036971
-0.036051
-0.034796
-0.032705
-0.029945
-0.028105
-0.026599
-0.026264
-0.026013
-0.027185
-0.028439
-0.030865
-0.032705
-0.032705
-0.031785
-0.030530
-0.028439
-0.025344
-0.022333
-0.021078
-0.020493
-0.019573
-0.018318
-0.018653
-0.019238
-0.018987
-0.018653
-0.018318
-0.019907
-0.021413
-0.023504
-0.025344
-0.027185
-0.028690
-0.030530
-0.030865
-0.029610
-0.027770
-0.026013
-0.023839
-0.022919
-0.022333
-0.021999
-0.021999
-0.021999
-0.021999
-0.021413
-0.019907
-0.018653
-0.016813
-0.014972
-0.013467
-0.012547
-0.013132
-0.014972
-0.017398
-0.019238
-0.019238
-0.018653
-0.019238
-0.018987
-0.016813
-0.015558
-0.014052
-0.012881
-0.012547
-0.012547
-0.014052
-0.017147
-0.020158
-0.022919
-0.025679
-0.027770
-0.030530
-0.032120
-0.032705
-0.032120
-0.030865
-0.029610
-0.028105
-0.026850
-0.025344
-0.023504
-0.021078
-0.019238
-0.016227
-0.011961
-0.007946
-0.004935
-0.003095
-0.001840
-0.001255
-0.001255
-0.003095
-0.006106
-0.009535
-0.013467
-0.016227
-0.018653
-0.020828
-0.021078
-0.018653
-0.014721
-0.010121
-0.006106
-0.003095
0.000000
0.000000
-0.002760
-0.006441
-0.011961
-0.016813
-0.020158
-0.021664
-0.019238
-0.014972
-0.008615
0.000251
0.008783
0.017064
0.025261
0.032287
0.037473
0.040819
0.041488
0.039982
0.034796
0.026515
0.016478
0.004517
-0.007946
-0.021078
-0.032705
-0.040902
-0.046088
-0.048263
-0.047008
-0.043997
-0.039062
-0.033625
-0.028439
-0.023504
-0.019907
-0.016227
-0.013132
-0.010707
-0.008866
-0.008281
-0.008615
-0.009535
-0.012212
-0.015892
-0.021413
-0.027519
-0.032370
-0.036636
-0.040651
-0.043997
-0.045168
-0.044583
-0.042491
-0.039731
-0.037306
-0.034796
-0.030279
-0.019573
0.002091
0.037807
0.087827
0.148887
0.216974
0.288658
0.356995
0.413790
0.451012
0.460129
0.438214
0.384765
0.303044
0.198656
0.081470
-0.037556
-0.149306
-0.244159
-0.316511
-0.361094
-0.375732
-0.363520
-0.328974
-0.280795
-0.226510
-0.171890
-0.122121
-0.081554
-0.051023
-0.030530
-0.018318
-0.013132
-0.012212
-0.014721
-0.018653
-0.021413
-0.022584
-0.022333
-0.021078
-0.018653
-0.014972
-0.010707
-0.006106
-0.002509
-0.000669
0.000000
-0.000335
-0.000669
-0.001589
-0.001840
-0.001840
-0.001840
-0.001255
0.000000
0.001757
0.003931
0.007277
0.011878
0.014303
0.016478
0.017398
0.017984
0.017649
0.016143
0.015558
0.014638
0.014303
0.015558
0.018235
0.022249
0.028021
0.034127
0.042408
0.049434
0.055791
0.063152
0.071683
0.079630
0.087241
0.094268
0.100039
0.104974
0.108905
0.112920
0.117186
0.121117
0.125969
0.131489
0.137930
0.143367
0.148887
0.152233
0.151313
0.145876
0.133915
0.116852
0.095188
0.071349
0.046005
0.020744
-0.003429
-0.024173
-0.040902
-0.053114
-0.060726
-0.065076
-0.067167
-0.067501
-0.065912
-0.062566
-0.058635
-0.054955
-0.052194
-0.050354
-0.048848
-0.047928
-0.047928
-0.049769
-0.052194
-0.055540
-0.058300
-0.061395
-0.063486
-0.063821
-0.060726
-0.054955
-0.047677
-0.039982
-0.032370
-0.025679
-0.021999
-0.021999
-0.025679
-0.032370
-0.041571
-0.051609
-0.061061
-0.069341
-0.074527
-0.075447
-0.072687
-0.067501
-0.058300
-0.047677
-0.036971
-0.028105
-0.021999
-0.018067
-0.016813
-0.018067
-0.022584
-0.028439
-0.034545
-0.038477
-0.040651
-0.040317
-0.037891
-0.033625
-0.029025
-0.023839
-0.019238
-0.015558
-0.012881
-0.011292
-0.010121
-0.010121
-0.011292
-0.012212
-0.011292
-0.010707
-0.010372
-0.010372
-0.010707
-0.009535
-0.008866
-0.008866
-0.010372
-0.011627
-0.013132
-0.014721
-0.015558
-0.016813
-0.017398
-0.018318
-0.018653
-0.018318
-0.017398
-0.016227
-0.014721
-0.011961
-0.007695
-0.002760
0.002677
0.006106
0.010372
0.012212
0.013718
0.011878
0.008783
0.005186
0.000920
-0.002760
-0.004600
-0.005186
-0.004600
-0.002760
-0.000669
0.001757
0.002426
0.002677
0.000920
-0.001840
-0.005186
-0.008866
-0.012547
-0.015307
-0.016478
-0.016478
-0.015307
-0.012881
-0.010372
-0.007026
-0.003429
-0.000335
0.001757
0.003931
0.005186
0.007612
0.009117
0.011292
0.015558
0.021329
0.024675
0.026181
0.026181
0.025010
0.021329
0.016729
0.012212
0.009703
0.008532
0.009117
0.012463
0.017984
0.024341
0.031701
0.041153
0.050605
0.060726
0.067752
0.072269
0.074695
0.072938
0.067418
0.056711
0.041739
0.024090
0.006692
-0.008866
-0.021999
-0.031199
-0.036385
-0.036971
-0.034796
-0.030279
-0.025679
-0.020493
-0.015307
-0.010707
-0.007026
-0.005855
-0.006441
-0.008866
-0.012212
-0.017147
-0.023504
-0.029945
-0.036051
-0.040317
-0.042742
-0.042742
-0.040317
-0.035716
-0.029945
-0.024173
-0.019573
-0.015892
-0.012212
-0.001840
0.018904
0.053031
0.100959
0.161685
0.231863
0.306976
0.379579
0.441895
0.483633
0.495845
0.474181
0.418056
0.331065
0.219985
0.091507
-0.039982
-0.163274
-0.267997
-0.346121
-0.393130
-0.406847
-0.389784
-0.348547
-0.291502
-0.227681
-0.163943
-0.106814
-0.061395
-0.028105
-0.006106
0.005771
0.011543
0.011878
0.008532
0.004517
0.001757
-0.000669
-0.002509
-0.002760
-0.003429
-0.002509
0.000251
0.003346
0.005771
0.006942
0.010037
0.014303
0.017649
0.019824
0.021664
0.022249
0.022584
0.022249
0.020995
0.019824
0.018569
0.017984
0.019155
0.021664
0.025595
0.030781
0.036887
0.044499
0.051860
0.057631
0.063403
0.068003
0.072269
0.075615
0.078124
0.078124
0.078124
0.077790
0.078124
0.079044
0.080801
0.084481
0.089082
0.095188
0.101628
0.108571
0.115346
0.121703
0.128729
0.136341
0.144287
0.153153
0.162940
0.172726
0.180338
0.184018
0.183098
0.175737
0.161685
0.140941
0.116266
0.088496
0.058886
0.031367
0.006942
-0.013132
-0.028690
-0.039982
-0.045503
-0.047008
-0.045168
-0.040651
-0.034796
-0.028690
-0.023839
-0.021078
-0.020158
-0.021664
-0.024759
-0.029945
-0.036385
-0.042742
-0.048598
-0.052194
-0.054034
-0.053114
-0.051609
-0.048848
-0.046088
-0.042157
-0.039062
-0.036385
-0.033876
-0.030865
-0.028439
-0.025093
-0.021664
-0.018653
-0.017733
-0.018067
-0.020493
-0.024173
-0.028690
-0.033876
-0.038477
-0.042491
-0.044583
-0.044248
-0.041822
-0.039062
-0.034796
-0.031199
-0.028439
-0.026599
-0.025093
-0.024173
-0.023253
-0.023504
-0.021999
-0.018987
-0.016478
-0.014972
-0.013801
-0.013801
-0.013801
-0.015892
-0.018653
-0.021664
-0.023839
-0.024759
-0.023504
-0.020493
-0.016227
-0.011627
-0.006106
-0.002175
0.000586
0.002091
0.003011
0.002677
0.000586
-0.001589
-0.004015
-0.006775
-0.009535
-0.013132
-0.016227
-0.018653
-0.019907
-0.020828
-0.021078
-0.020493
-0.019907
-0.018318
-0.016227
-0.014052
-0.012212
-0.011292
-0.011627
-0.012212
-0.012881
-0.013467
-0.014721
-0.016227
-0.018067
-0.019573
-0.019238
-0.017733
-0.015307
-0.011961
-0.008866
-0.006106
-0.003095
-0.001589
-0.001255
-0.003095
-0.005855
-0.010372
-0.014721
-0.018987
-0.022584
-0.023839
-0.022584
-0.018318
-0.012881
-0.007695
-0.001589
0.002677
0.005186
0.003931
0.000000
-0.005521
-0.011041
-0.015558
-0.018987
-0.019907
-0.019238
-0.017398
-0.014721
-0.011292
-0.008615
-0.006106
-0.002509
0.003346
0.009703
0.017064
0.024341
0.030781
0.036302
0.037473
0.036302
0.033876
0.031367
0.029861
0.028690
0.026850
0.026181
0.025595
0.027101
0.026181
0.020995
0.013049
0.001757
-0.009535
-0.021078
-0.032370
-0.042157
-0.049183
-0.052194
-0.051943
-0.048848
-0.043997
-0.036636
-0.029945
-0.025093
-0.022919
-0.024173
-0.027770
-0.033876
-0.040651
-0.047677
-0.051943
-0.054369
-0.054955
-0.053783
-0.050354
-0.047008
-0.043077
-0.040902
-0.040317
-0.040902
-0.039397
-0.032120
-0.013801
0.019824
0.069509
0.132075
0.204427
0.280711
0.354570
0.417136
0.457703
0.468745
0.443651
0.384180
0.292924
0.177578
0.047594
-0.084230
-0.204846
-0.304299
-0.375397
-0.416634
-0.424246
-0.401662
-0.354988
-0.295767
-0.231947
-0.172475
-0.121787
-0.083059
-0.058049
-0.044583
-0.040651
-0.042491
-0.046088
-0.049769
-0.051943
-0.051609
-0.048598
-0.043077
-0.036636
-0.030530
-0.025679
-0.021078
-0.018067
-0.016227
-0.015307
-0.016227
-0.016227
-0.016478
-0.016813
-0.017733
-0.018318
-0.017733
-0.017147
-0.015892
-0.014387
-0.012547
-0.009535
-0.005186
0.000586
0.005437
0.010037
0.012798
0.014303
0.014303
0.013049
0.011292
0.008197
0.005437
0.004517
0.006357
0.010372
0.016729
0.024675
0.034127
0.044248
0.054285
0.064323
0.072938
0.079295
0.084816
0.089416
0.092427
0.094853
0.097948
0.101628
0.106145
0.112920
0.119863
0.127809
0.134835
0.140356
0.141861
0.139436
0.131489
0.117437
0.098868
0.076869
0.053031
0.027770
0.003597
-0.019238
-0.039062
-0.055540
-0.068672
-0.077873
-0.083645
-0.086405
-0.085819
-0.083059
-0.079044
-0.074527
-0.070847
-0.068087
-0.068087
-0.070512
-0.073607
-0.076618
-0.079044
-0.080633
-0.080633
-0.078459
-0.073607
-0.068421
-0.063486
-0.058300
-0.055540
-0.055289
-0.057715
-0.061395
-0.066247
-0.070261
-0.074527
-0.077873
-0.079379
-0.080299
-0.078793
-0.076618
-0.073607
-0.070512
-0.067752
-0.067167
-0.067501
-0.069592
-0.072938
-0.075113
-0.077204
-0.078793
-0.078124
-0.075113
-0.069007
-0.058635
-0.047677
-0.037556
-0.030279
-0.023839
-0.021413
-0.024759
-0.032370
-0.043662
-0.055289
-0.066247
-0.075447
-0.080884
-0.083310
-0.080884
-0.074527
-0.065661
-0.057380
-0.049434
-0.043412
-0.038811
-0.036051
-0.034796
-0.033876
-0.034545
-0.035716
-0.037556
-0.039062
-0.040902
-0.043412
-0.045168
-0.046423
-0.047677
-0.047928
-0.047677
-0.046423
-0.044248
-0.040902
-0.037556
-0.033876
-0.030530
-0.027185
-0.023839
-0.021078
-0.018653
-0.017398
-0.017733
-0.020158
-0.023839
-0.027770
-0.032120
-0.036636
-0.039397
-0.039731
-0.038811
-0.037891
-0.035716
-0.032705
-0.029945
-0.028690
-0.028690
-0.029945
-0.031785
-0.034211
-0.037306
-0.039982
-0.041822
-0.042157
-0.042157
-0.040651
-0.038811
-0.036385
-0.032370
-0.027519
-0.021999
-0.017147
-0.011961
-0.007361
-0.002760
0.000920
0.003011
0.004851
0.006357
0.007277
0.008532
0.010957
0.012463
0.014303
0.015223
0.016478
0.018904
0.020995
0.023755
0.025930
0.027770
0.028690
0.029527
0.028941
0.027101
0.022249
0.016478
0.009703
0.003597
-0.002509
-0.007361
-0.010121
-0.011292
-0.011292
-0.010121
-0.008615
-0.008281
-0.008615
-0.010372
-0.013801
-0.018067
-0.023504
-0.028439
-0.032120
-0.033876
-0.034545
-0.033291
-0.030865
-0.027185
-0.022919
-0.019238
-0.016227
-0.013801
-0.012547
-0.011627
-0.011627
-0.013467
-0.014721
-0.010707
0.002677
0.029276
0.070429
0.125969
0.192215
0.263648
0.334746
0.397647
0.443066
0.463224
0.451346
0.404924
0.328054
0.224920
0.104639
-0.021664
-0.142865
-0.245413
-0.323203
-0.371717
-0.389449
-0.378492
-0.342441
-0.289327
-0.228601
-0.168795
-0.115681
-0.072938
-0.042742
-0.023253
-0.011627
-0.005186
-0.001840
-0.000669
0.000920
0.002677
0.004517
0.006357
0.008783
0.010037
0.010037
0.008197
0.006942
0.004517
0.002677
0.001506
0.001506
0.003346
0.006106
0.009452
0.012463
0.014638
0.016478
0.017649
0.019489
0.020995
0.024675
0.028021
0.031367
0.034127
0.036302
0.038393
0.039313
0.038142
0.035967
0.033207
0.031116
0.029861
0.029527
0.031701
0.035633
0.040819
0.047845
0.054871
0.063152
0.071683
0.080801
0.090587
0.100039
0.108320
0.115346
0.121452
0.127558
0.132995
0.138850
0.143116
0.147633
0.152233
0.156834
0.161100
0.163860
0.164111
0.161434
0.156248
0.146462
0.132075
0.113757
0.091842
0.066832
0.040233
0.014638
-0.008281
-0.026850
-0.039397
-0.047677
-0.053783
-0.056460
-0.055540
-0.053449
-0.053449
-0.055875
-0.059890
-0.064406
-0.069341
-0.072687
-0.074778
-0.076033
-0.074527
-0.071182
-0.066581
-0.061646
-0.058300
-0.054955
-0.052194
-0.050354
-0.048598
-0.048598
-0.048598
-0.048598
-0.048598
-0.048848
-0.048598
-0.049183
-0.049769
-0.049769
-0.049434
-0.049183
-0.048598
-0.048263
-0.047343
-0.047008
-0.047343
-0.047677
-0.047343
-0.047677
-0.048598
-0.049434
-0.050354
-0.051023
-0.050689
-0.049769
-0.048263
-0.045837
-0.043077
-0.038811
-0.034545
-0.030865
-0.028105
-0.025344
-0.023839
-0.023504
-0.024173
-0.027185
-0.030865
-0.036051
-0.040651
-0.045168
-0.049183
-0.051943
-0.054369
-0.054034
-0.051023
-0.046088
-0.040651
-0.034545
-0.029025
-0.022919
-0.019238
-0.016813
-0.016227
-0.015892
-0.017398
-0.020493
-0.023504
-0.026850
-0.029610
-0.033291
-0.036385
-0.039731
-0.040651
-0.041237
-0.041822
-0.042157
-0.041571
-0.039731
-0.035716
-0.031785
-0.028105
-0.025344
-0.023504
-0.021413
-0.020158
-0.019573
-0.020158
-0.022333
-0.025093
-0.027185
-0.029025
-0.030530
-0.030279
-0.029945
-0.028690
-0.026013
-0.022919
-0.019238
-0.016227
-0.012881
-0.010707
-0.010121
-0.010372
-0.011041
-0.008866
-0.008281
-0.008281
-0.008615
-0.005521
-0.000669
0.003931
0.006942
0.009117
0.010037
0.010623
0.012212
0.013718
0.015223
0.017064
0.020075
0.023755
0.028021
0.030781
0.031367
0.031116
0.028356
0.022584
0.014638
0.005437
-0.003095
-0.011041
-0.017398
-0.021999
-0.024424
-0.024759
-0.023504
-0.022584
-0.020828
-0.018987
-0.017398
-0.016227
-0.017398
-0.020158
-0.022584
-0.023839
-0.024173
-0.024424
-0.024759
-0.025679
-0.027185
-0.028439
-0.029945
-0.031450
-0.032705
-0.033876
-0.033876
-0.032956
-0.032705
-0.029025
-0.019573
0.002677
0.039982
0.092762
0.158674
0.232532
0.309736
0.384514
0.446411
0.486728
0.496180
0.470585
0.411030
0.321614
0.210199
0.085401
-0.039731
-0.155997
-0.252690
-0.324708
-0.367200
-0.379663
-0.363185
-0.323537
-0.268917
-0.206602
-0.144705
-0.089416
-0.043662
-0.010121
0.010037
0.019489
0.018904
0.012212
0.001171
-0.011041
-0.023504
-0.034796
-0.042742
-0.047008
-0.046757
-0.042742
-0.034545
-0.024759
-0.013132
-0.000669
0.012212
0.024090
0.033876
0.041488
0.046005
0.047845
0.047594
0.045168
0.041488
0.037473
0.033542
0.028690
0.024675
0.021329
0.019489
0.018235
0.017649
0.017984
0.019489
0.022249
0.027101
0.032621
0.038727
0.043913
0.048514
0.052111
0.054620
0.057297
0.061646
0.067752
0.074109
0.081135
0.090002
0.098868
0.107985
0.115011
0.121703
0.126638
0.130904
0.135755
0.142781
0.152819
0.163525
0.174232
0.183349
0.189455
0.189790
0.183098
0.169297
0.150393
0.125969
0.098199
0.068003
0.039313
0.013383
-0.007026
-0.022584
-0.033291
-0.040317
-0.044917
-0.046757
-0.046088
-0.044583
-0.043662
-0.043997
-0.044917
-0.046757
-0.048848
-0.050103
-0.052863
-0.055875
-0.058300
-0.058969
-0.060140
-0.060475
-0.060475
-0.059890
-0.059555
-0.058969
-0.058300
-0.057129
-0.055540
-0.052863
-0.049769
-0.045168
-0.040317
-0.034545
-0.030279
-0.026599
-0.024173
-0.024424
-0.026850
-0.032370
-0.038811
-0.045503
-0.051609
-0.056460
-0.061395
-0.065661
-0.067501
-0.067501
-0.065912
-0.062566
-0.059220
-0.054620
-0.049769
-0.045168
-0.039731
-0.034211
-0.028439
-0.024173
-0.022584
-0.023504
-0.025679
-0.027519
-0.029359
-0.031450
-0.032705
-0.033625
-0.033291
-0.032370
-0.029610
-0.027185
-0.024759
-0.023839
-0.024759
-0.026013
-0.025344
-0.024173
-0.023839
-0.024759
-0.024759
-0.026264
-0.027185
-0.027185
-0.027770
-0.029610
-0.030530
-0.030865
-0.029359
-0.025344
-0.021664
-0.020158
-0.018318
-0.018067
-0.018653
-0.021078
-0.024759
-0.029945
-0.035716
-0.041571
-0.045503
-0.047343
-0.047928
-0.047343
-0.045837
-0.042742
-0.039397
-0.034545
-0.030279
-0.026013
-0.022333
-0.019573
-0.018318
-0.018653
-0.020493
-0.021999
-0.022584
-0.022919
-0.022919
-0.023253
-0.022584
-0.020828
-0.018987
-0.016478
-0.015558
-0.014387
-0.014052
-0.014721
-0.016227
-0.018318
-0.021078
-0.023839
-0.026264
-0.027519
-0.026850
-0.024759
-0.020493
-0.014387
-0.007695
-0.001589
0.005186
0.011878
0.018569
0.023170
0.027101
0.030781
0.033876
0.035633
0.035633
0.033876
0.028356
0.021664
0.013383
0.004266
-0.006441
-0.017398
-0.027185
-0.034211
-0.038477
-0.039397
-0.038811
-0.037891
-0.035131
-0.032370
-0.029025
-0.027185
-0.027185
-0.028439
-0.030279
-0.033876
-0.037306
-0.039982
-0.042157
-0.043412
-0.044583
-0.044583
-0.043997
-0.042742
-0.040651
-0.036971
-0.034545
-0.032370
-0.030865
-0.031450
-0.032370
-0.031199
-0.022584
-0.001840
0.035382
0.088496
0.152819
0.224920
0.298109
0.366196
0.419561
0.450092
0.451012
0.418641
0.355490
0.266074
0.156248
0.035967
-0.084230
-0.191964
-0.280795
-0.345201
-0.381838
-0.389449
-0.370797
-0.331735
-0.278620
-0.220989
-0.165115
-0.115681
-0.077539
-0.050354
-0.033291
-0.023504
-0.018987
-0.019238
-0.022333
-0.025344
-0.027519
-0.027519
-0.026264
-0.022919
-0.018067
-0.012212
-0.005855
0.000251
0.004517
0.007612
0.008783
0.007863
0.005437
0.002426
-0.001840
-0.004935
-0.006106
-0.006106
-0.003429
0.001171
0.006106
0.009703
0.012798
0.014889
0.015809
0.014889
0.013718
0.011878
0.010957
0.009117
0.008783
0.009117
0.010623
0.012212
0.014889
0.017398
0.020409
0.023504
0.028021
0.033542
0.039982
0.046674
0.054620
0.061646
0.069509
0.077790
0.086656
0.095773
0.105894
0.116266
0.128478
0.141527
0.153739
0.163525
0.169297
0.170551
0.165951
0.154659
0.137595
0.115931
0.090922
0.064657
0.039982
0.016729
-0.001255
-0.015558
-0.026599
-0.035465
-0.040651
-0.044917
-0.046423
-0.047343
-0.049434
-0.051023
-0.053114
-0.056460
-0.060140
-0.064155
-0.068087
-0.071767
-0.074193
-0.076033
-0.075113
-0.072353
-0.067752
-0.061395
-0.054955
-0.047928
-0.043412
-0.039731
-0.037306
-0.037556
-0.039397
-0.043412
-0.049183
-0.054369
-0.058635
-0.061061
-0.062901
-0.063235
-0.061061
-0.057129
-0.051943
-0.045168
-0.038811
-0.032370
-0.027185
-0.023839
-0.021999
-0.020828
-0.021664
-0.025093
-0.028690
-0.034545
-0.039731
-0.043997
-0.046757
-0.046423
-0.046423
-0.043997
-0.040902
-0.035716
-0.030865
-0.026850
-0.023504
-0.021664
-0.021078
-0.021413
-0.021078
-0.021413
-0.022919
-0.023504
-0.024173
-0.024424
-0.023504
-0.022584
-0.021999
-0.021413
-0.019238
-0.015892
-0.012881
-0.010372
-0.008615
-0.006775
-0.006441
-0.005855
-0.005855
-0.007026
-0.007695
-0.008866
-0.010707
-0.011627
-0.012547
-0.013801
-0.015892
-0.018067
-0.021664
-0.024173
-0.026013
-0.026264
-0.026264
-0.024759
-0.021413
-0.018067
-0.015307
-0.013801
-0.012212
-0.010707
-0.011041
-0.012547
-0.014052
-0.014972
-0.014972
-0.014721
-0.012212
-0.009201
-0.005186
-0.001589
0.001757
0.004266
0.006106
0.006357
0.005771
0.004517
0.003011
0.001757
0.002091
0.000920
-0.000669
-0.001840
-0.002509
-0.001589
0.000000
0.001757
0.003346
0.004851
0.008532
0.012798
0.017398
0.021915
0.026515
0.031701
0.037473
0.042408
0.046005
0.047845
0.045168
0.040568
0.032287
0.020744
0.006106
-0.009786
-0.024759
-0.036971
-0.045503
-0.049434
-0.047677
-0.042742
-0.035465
-0.027770
-0.021413
-0.015892
-0.010372
-0.008281
-0.010121
-0.014387
-0.019238
-0.024759
-0.029945
-0.033291
-0.035465
-0.036636
-0.037306
-0.037891
-0.035716
-0.033876
-0.032705
-0.032705
-0.033876
-0.036636
-0.039982
-0.039982
-0.030530
-0.006441
0.035633
0.093013
0.161685
0.237718
0.316093
0.386940
0.440054
0.467155
0.460129
0.417721
0.343612
0.241398
0.119277
-0.010121
-0.135504
-0.245664
-0.333575
-0.392461
-0.419645
-0.414125
-0.380918
-0.328389
-0.265237
-0.200831
-0.142530
-0.095271
-0.060140
-0.038142
-0.026013
-0.021664
-0.021413
-0.022584
-0.021999
-0.020158
-0.017398
-0.012881
-0.008281
-0.004015
-0.001589
-0.001255
-0.001589
-0.003429
-0.007026
-0.009786
-0.011961
-0.013801
-0.015307
-0.014721
-0.012881
-0.009201
-0.005521
-0.002175
0.001757
0.005437
0.009703
0.012798
0.015558
0.018569
0.020744
0.021329
0.021329
0.020995
0.019155
0.018904
0.018569
0.019824
0.021664
0.024675
0.028941
0.034462
0.040568
0.046339
0.051860
0.057297
0.064072
0.072018
0.079295
0.085736
0.092762
0.100708
0.107065
0.113171
0.118692
0.125383
0.132409
0.140356
0.149473
0.156248
0.160765
0.161100
0.156834
0.147047
0.131489
0.109825
0.085150
0.058551
0.032621
0.009703
-0.009786
-0.027185
-0.041822
-0.051943
-0.059555
-0.064155
-0.067501
-0.069592
-0.070847
-0.070512
-0.069927
-0.069007
-0.067501
-0.067167
-0.067167
-0.068421
-0.070261
-0.071182
-0.071182
-0.071182
-0.069927
-0.067501
-0.063821
-0.060140
-0.056209
-0.054369
-0.054034
-0.054369
-0.055875
-0.057380
-0.058049
-0.058300
-0.058049
-0.056795
-0.055289
-0.053114
-0.051274
-0.050354
-0.051274
-0.051943
-0.049434
-0.045503
-0.041237
-0.036385
-0.031199
-0.024759
-0.020158
-0.017398
-0.018653
-0.021664
-0.026599
-0.032956
-0.039731
-0.045837
-0.051023
-0.054620
-0.057380
-0.058969
-0.058969
-0.057715
-0.055540
-0.051943
-0.047008
-0.041571
-0.034796
-0.030279
-0.025344
-0.021999
-0.018653
-0.016813
-0.016227
-0.016227
-0.017733
-0.018653
-0.019907
-0.020828
-0.019907
-0.018653
-0.017398
-0.016478
-0.016227
-0.014972
-0.014972
-0.015307
-0.017147
-0.019907
-0.022333
-0.024424
-0.025344
-0.025344
-0.024173
-0.021664
-0.019573
-0.016813
-0.013132
-0.008615
-0.004266
-0.000920
0.001171
0.002091
0.003346
0.003346
0.003346
0.002677
0.001171
-0.001589
-0.004266
-0.006441
-0.008866
-0.009786
-0.009535
-0.008281
-0.006106
-0.004600
-0.002760
-0.001255
-0.000669
-0.000335
-0.000669
-0.000669
-0.001255
0.000000
0.003346
0.006692
0.009452
0.011292
0.013383
0.013718
0.013969
0.012463
0.010623
0.010037
0.010372
0.011543
0.013718
0.015558
0.017649
0.019824
0.023170
0.025261
0.027770
0.030781
0.033207
0.035633
0.037222
0.037807
0.036302
0.034796
0.034127
0.033542
0.034127
0.035382
0.036887
0.038142
0.038727
0.036887
0.033542
0.027770
0.020075
0.012212
0.006357
0.003346
0.002091
0.003011
0.005771
0.008783
0.011878
0.013049
0.012463
0.009452
0.004851
-0.000335
-0.004935
-0.007695
-0.009201
-0.009535
-0.007026
-0.004600
-0.001255
0.002426
0.005771
0.007863
0.009117
0.009452
0.009703
0.009117
0.007863
0.005771
0.005186
0.009703
0.023170
0.051860
0.095773
0.153488
0.220571
0.291752
0.363771
0.429013
0.476691
0.498355
0.487648
0.443400
0.368287
0.265488
0.143116
0.013969
-0.108403
-0.216974
-0.301873
-0.357414
-0.380583
-0.372637
-0.338510
-0.287236
-0.226510
-0.164529
-0.108654
-0.061981
-0.026850
-0.002509
0.010957
0.017649
0.020075
0.019489
0.016143
0.011878
0.007277
0.003346
0.000586
-0.000335
0.000251
0.001757
0.004266
0.008197
0.012798
0.017398
0.021329
0.024675
0.026181
0.027101
0.026515
0.024341
0.023504
0.023755
0.023755
0.024341
0.025010
0.025595
0.027435
0.029861
0.032287
0.035047
0.037222
0.039648
0.041739
0.043328
0.044248
0.045419
0.046339
0.046925
0.047845
0.050354
0.054871
0.061897
0.068923
0.075949
0.082641
0.089667
0.095522
0.100039
0.102799
0.105894
0.110160
0.116852
0.127223
0.138850
0.151648
0.164445
0.176072
0.185858
0.190710
0.191044
0.185189
0.174566
0.157168
0.134835
0.110411
0.083896
0.057297
0.032036
0.009452
-0.010372
-0.025344
-0.035716
-0.042157
-0.043997
-0.042491
-0.039397
-0.034796
-0.028439
-0.022919
-0.017733
-0.014052
-0.012547
-0.012881
-0.016478
-0.022333
-0.029025
-0.036051
-0.042742
-0.048263
-0.052194
-0.053783
-0.053114
-0.050103
-0.046423
-0.041822
-0.036971
-0.031785
-0.026850
-0.023253
-0.020493
-0.018987
-0.018653
-0.019573
-0.022333
-0.025679
-0.029359
-0.034211
-0.038142
-0.040651
-0.041822
-0.041822
-0.040902
-0.039397
-0.037556
-0.034796
-0.031199
-0.027519
-0.023504
-0.020158
-0.018067
-0.016478
-0.014721
-0.014721
-0.015892
-0.018067
-0.020158
-0.022584
-0.025093
-0.026013
-0.026264
-0.025093
-0.021999
-0.018067
-0.014387
-0.010121
-0.006441
-0.004015
-0.003680
-0.005521
-0.008866
-0.013467
-0.017147
-0.020828
-0.023253
-0.025344
-0.026013
-0.023504
-0.018318
-0.013801
-0.009535
-0.005855
-0.003429
-0.002175
-0.002760
-0.003680
-0.004015
-0.004935
-0.006106
-0.007026
-0.008281
-0.007946
-0.007026
-0.005855
-0.004266
-0.003095
-0.002175
-0.001255
0.000251
0.002091
0.003346
0.005437
0.006692
0.007277
0.006942
0.006106
0.005437
0.006357
0.006942
0.006692
0.006357
0.006692
0.006692
0.006942
0.006942
0.006942
0.006357
0.004851
0.004266
0.003346
0.003011
0.001757
0.000586
0.001171
0.005437
0.011543
0.017984
0.023504
0.028356
0.032287
0.035047
0.034462
0.032621
0.029527
0.027101
0.025010
0.024090
0.025010
0.026181
0.028356
0.028356
0.026515
0.020995
0.014638
0.007863
0.002426
-0.003680
-0.008281
-0.011041
-0.011961
-0.012212
-0.013467
-0.014972
-0.017398
-0.021664
-0.025344
-0.029945
-0.034211
-0.039062
-0.041571
-0.042491
-0.040651
-0.036636
-0.031785
-0.026264
-0.020828
-0.016227
-0.012881
-0.011961
-0.012881
-0.015892
-0.021078
-0.027185
-0.034211
-0.036636
-0.030279
-0.009786
0.027770
0.081470
0.147382
0.221240
0.296269
0.365527
0.420482
0.453187
0.454943
0.422907
0.359421
0.267914
0.152819
0.032036
-0.089416
-0.200496
-0.289661
-0.354988
-0.390620
-0.396141
-0.375063
-0.332069
-0.276529
-0.216974
-0.159929
-0.109574
-0.071182
-0.043662
-0.027519
-0.018653
-0.014972
-0.016478
-0.019573
-0.021999
-0.024759
-0.025679
-0.024759
-0.022584
-0.020158
-0.017398
-0.014387
-0.013801
-0.014052
-0.015892
-0.016813
-0.017398
-0.017398
-0.017398
-0.016478
-0.014387
-0.012212
-0.008866
-0.005186
-0.003095
-0.001255
0.000251
0.001757
0.003011
0.002677
0.001171
-0.000335
-0.001840
-0.003429
-0.004015
-0.003429
-0.000920
0.003011
0.008197
0.014889
0.022249
0.029276
0.036887
0.043579
0.050354
0.057046
0.064323
0.072018
0.079881
0.086321
0.092093
0.096108
0.100374
0.104305
0.108571
0.112920
0.117437
0.123292
0.130569
0.137261
0.140941
0.139770
0.132995
0.119863
0.100374
0.076535
0.050019
0.022584
-0.002760
-0.023839
-0.039397
-0.048848
-0.054955
-0.057129
-0.057715
-0.057380
-0.057715
-0.059555
-0.063821
-0.067752
-0.071182
-0.074527
-0.076953
-0.077204
-0.075447
-0.073607
-0.069341
-0.065661
-0.061395
-0.057380
-0.054955
-0.054034
-0.054369
-0.055540
-0.057380
-0.060475
-0.062901
-0.065661
-0.066581
-0.067167
-0.066581
-0.065076
-0.062566
-0.059890
-0.056795
-0.054034
-0.051274
-0.048598
-0.045837
-0.043997
-0.044248
-0.045837
-0.047343
-0.049183
-0.050689
-0.051609
-0.052194
-0.051274
-0.049769
-0.048263
-0.046423
-0.044917
-0.043662
-0.043077
-0.042491
-0.042157
-0.041822
-0.040651
-0.038811
-0.035716
-0.032956
-0.031199
-0.029610
-0.028439
-0.028105
-0.028439
-0.029945
-0.031199
-0.032705
-0.034545
-0.036385
-0.036971
-0.036636
-0.036385
-0.035465
-0.033291
-0.030865
-0.027185
-0.022919
-0.018318
-0.014387
-0.011041
-0.009201
-0.008866
-0.010707
-0.012881
-0.016813
-0.021999
-0.027185
-0.032120
-0.034796
-0.035465
-0.035465
-0.032956
-0.029945
-0.026013
-0.021664
-0.017398
-0.013801
-0.012547
-0.011961
-0.012547
-0.012547
-0.013801
-0.014721
-0.015307
-0.015307
-0.015892
-0.014721
-0.012881
-0.010707
-0.008866
-0.006775
-0.004600
-0.003429
-0.002760
-0.003095
-0.004600
-0.006775
-0.009535
-0.012212
-0.014972
-0.017147
-0.017733
-0.016813
-0.015558
-0.013132
-0.009786
-0.007695
-0.007026
-0.006775
-0.007695
-0.009786
-0.011961
-0.014052
-0.014721
-0.012547
-0.008281
-0.000920
0.006106
0.013383
0.019155
0.023170
0.025261
0.025010
0.022835
0.019824
0.017649
0.015809
0.014889
0.014889
0.015223
0.015558
0.014638
0.012212
0.008783
0.003931
-0.000669
-0.005521
-0.009535
-0.012547
-0.014387
-0.015307
-0.015558
-0.015307
-0.015307
-0.016227
-0.017398
-0.018987
-0.021078
-0.022333
-0.022584
-0.021078
-0.018318
-0.012881
-0.007695
-0.002175
0.002426
0.005771
0.007863
0.007612
0.003931
-0.000920
-0.007946
-0.014721
-0.021999
-0.028690
-0.032705
-0.029025
-0.012881
0.020409
0.070429
0.134835
0.207522
0.283137
0.355155
0.415296
0.454692
0.466570
0.444571
0.391206
0.308816
0.204093
0.085150
-0.037306
-0.151397
-0.248759
-0.321697
-0.367200
-0.382758
-0.369877
-0.334829
-0.282301
-0.221324
-0.159929
-0.105894
-0.062901
-0.030865
-0.009786
0.002091
0.006692
0.007277
0.005186
0.002091
-0.000335
-0.002760
-0.003095
-0.003095
-0.002175
-0.000920
-0.000669
0.000000
0.000000
0.000920
0.000920
0.001506
0.003346
0.006692
0.009703
0.013383
0.017649
0.022249
0.026850
0.029861
0.031116
0.031367
0.031116
0.030196
0.029861
0.029861
0.030781
0.032956
0.035382
0.037807
0.039982
0.041739
0.042993
0.042993
0.042659
0.042073
0.042659
0.044499
0.048179
0.053031
0.060391
0.067083
0.074444
0.082055
0.089667
0.097028
0.103385
0.108905
0.115011
0.123292
0.133915
0.146462
0.159594
0.172057
0.182764
0.189790
0.191295
0.185189
0.171471
0.151062
0.124463
0.094268
0.061897
0.030447
0.003597
-0.018653
-0.037556
-0.049183
-0.055875
-0.058049
-0.057129
-0.054369
-0.049769
-0.045168
-0.041822
-0.038142
-0.035131
-0.032705
-0.032956
-0.033291
-0.034796
-0.036636
-0.039062
-0.043077
-0.046423
-0.049183
-0.050689
-0.051274
-0.051023
-0.049434
-0.047343
-0.045168
-0.043662
-0.042157
-0.041822
-0.042491
-0.043412
-0.044248
-0.044917
-0.043997
-0.041571
-0.038142
-0.034211
-0.029359
-0.025344
-0.022919
-0.021413
-0.021999
-0.022919
-0.025344
-0.028439
-0.031450
-0.033625
-0.033625
-0.033291
-0.031199
-0.027519
-0.023839
-0.019238
-0.014721
-0.011292
-0.007361
-0.004600
-0.002509
-0.003095
-0.004015
-0.007361
-0.011292
-0.016227
-0.021078
-0.024759
-0.026850
-0.026850
-0.024424
-0.020158
-0.014972
-0.009786
-0.004266
0.000586
0.003597
0.004851
0.003597
0.001757
-0.000669
-0.002509
-0.003095
-0.002760
-0.001840
0.000251
0.004266
0.009452
0.015223
0.020744
0.025010
0.027770
0.028356
0.027435
0.025261
0.021664
0.017064
0.010623
0.005437
0.000000
-0.004266
-0.007361
-0.008866
-0.009786
-0.007946
-0.004600
-0.000669
0.003346
0.006942
0.011543
0.015809
0.019489
0.020744
0.020409
0.019155
0.018235
0.017398
0.016478
0.015223
0.013969
0.013383
0.013049
0.013718
0.014889
0.015809
0.017398
0.019489
0.021329
0.022835
0.025010
0.025930
0.025595
0.024675
0.024675
0.024090
0.025010
0.025595
0.026515
0.027770
0.029861
0.031701
0.034462
0.036553
0.039062
0.042659
0.047259
0.052780
0.057046
0.060057
0.060977
0.060391
0.055791
0.048179
0.039062
0.028356
0.018904
0.011543
0.006357
0.004266
0.002677
0.003011
0.003346
0.004266
0.004266
0.003597
0.002091
0.000251
-0.001255
-0.003095
-0.004015
-0.005521
-0.007026
-0.009535
-0.012212
-0.015307
-0.018318
-0.021078
-0.022919
-0.022333
-0.019907
-0.016478
-0.012212
-0.006775
-0.001840
0.003011
0.009452
0.023504
0.048179
0.085150
0.133664
0.190710
0.252690
0.317013
0.377739
0.424497
0.450092
0.447666
0.414376
0.349969
0.259382
0.147047
0.025010
-0.094017
-0.200496
-0.287236
-0.347627
-0.377572
-0.375732
-0.346707
-0.298193
-0.238387
-0.176407
-0.119361
-0.071433
-0.035465
-0.011292
0.002426
0.007277
0.006692
0.003597
0.000000
-0.001589
-0.001589
-0.000669
0.002426
0.006357
0.010623
0.013383
0.015223
0.015558
0.015223
0.014889
0.014638
0.014303
0.015223
0.018569
0.023755
0.028690
0.032956
0.036302
0.038142
0.038393
0.038393
0.037222
0.034462
0.032956
0.032287
0.033207
0.034462
0.036302
0.039062
0.041488
0.043579
0.046005
0.048514
0.050605
0.054620
0.059137
0.065243
0.072269
0.079630
0.086321
0.092427
0.098868
0.104974
0.110160
0.115346
0.120197
0.124463
0.129064
0.133915
0.140356
0.146713
0.153739
0.161434
0.168126
0.172057
0.173312
0.169966
0.162354
0.150728
0.133915
0.113506
0.090336
0.064992
0.039982
0.016478
-0.004600
-0.021664
-0.034796
-0.044248
-0.049183
-0.050103
-0.048848
-0.046757
-0.044917
-0.044917
-0.045503
-0.048263
-0.051609
-0.055540
-0.058049
-0.060140
-0.060726
-0.058969
-0.055540
-0.050689
-0.045503
-0.041571
-0.037891
-0.036051
-0.035716
-0.036636
-0.039731
-0.043997
-0.049183
-0.054369
-0.058969
-0.062566
-0.064741
-0.064741
-0.061646
-0.057129
-0.051943
-0.046088
-0.041237
-0.036385
-0.033876
-0.032370
-0.032120
-0.032705
-0.034796
-0.036636
-0.037891
-0.038477
-0.038477
-0.037556
-0.036385
-0.034545
-0.032120
-0.028690
-0.025093
-0.022584
-0.020493
-0.020158
-0.019907
-0.021664
-0.024759
-0.027770
-0.030279
-0.031785
-0.031785
-0.032120
-0.029945
-0.026599
-0.024173
-0.021078
-0.019238
-0.018067
-0.017147
-0.016478
-0.016813
-0.017398
-0.017147
-0.018067
-0.019238
-0.019573
-0.020158
-0.021999
-0.023504
-0.026013
-0.027185
-0.027770
-0.027770
-0.026599
-0.024759
-0.021413
-0.018067
-0.012881
-0.007946
-0.003680
-0.000669
0.001757
0.002426
0.002426
0.001506
-0.000335
-0.002175
-0.004600
-0.007361
-0.009786
-0.012547
-0.013801
-0.015558
-0.017398
-0.019573
-0.021413
-0.022919
-0.022584
-0.021664
-0.019907
-0.017147
-0.014052
-0.009535
-0.006106
-0.001589
0.003346
0.008783
0.014889
0.020075
0.024675
0.029527
0.032956
0.035382
0.036553
0.036887
0.036887
0.037222
0.037473
0.037807
0.038142
0.037473
0.035382
0.032287
0.026515
0.020075
0.011878
0.002677
-0.004266
-0.010121
-0.014972
-0.018318
-0.020493
-0.021078
-0.020828
-0.018653
-0.017147
-0.016478
-0.015892
-0.017147
-0.017398
-0.018987
-0.021413
-0.024424
-0.027185
-0.029945
-0.031199
-0.032370
-0.032120
-0.030530
-0.028690
-0.027185
-0.026013
-0.025344
-0.024759
-0.019907
-0.006441
0.019489
0.060726
0.114426
0.178498
0.249261
0.321279
0.387860
0.439720
0.467155
0.463809
0.427508
0.360341
0.266074
0.150393
0.024341
-0.099203
-0.209697
-0.299113
-0.361094
-0.393130
-0.394050
-0.368036
-0.322283
-0.263982
-0.203591
-0.147131
-0.099203
-0.062315
-0.035716
-0.019907
-0.011292
-0.008866
-0.010121
-0.013132
-0.015892
-0.018653
-0.020158
-0.019907
-0.019238
-0.017733
-0.015892
-0.013467
-0.011292
-0.009535
-0.007695
-0.005521
-0.003680
-0.000920
0.003011
0.008197
0.013718
0.017984
0.022584
0.026850
0.031367
0.033542
0.035382
0.034462
0.032621
0.030781
0.027101
0.024090
0.020075
0.015558
0.012212
0.010623
0.010623
0.013049
0.017064
0.023504
0.032621
0.042408
0.052780
0.063737
0.074444
0.084481
0.092427
0.099453
0.104305
0.108571
0.112920
0.116517
0.120783
0.125718
0.132075
0.139436
0.147967
0.158005
0.165951
0.171471
0.172977
0.169297
0.160179
0.145207
0.124798
0.099788
0.071349
0.042659
0.015558
-0.008615
-0.029025
-0.044917
-0.054034
-0.058969
-0.060726
-0.060140
-0.058969
-0.057129
-0.055289
-0.053114
-0.051274
-0.050689
-0.051274
-0.052194
-0.052863
-0.053449
-0.055289
-0.058300
-0.059890
-0.061395
-0.061061
-0.058635
-0.056209
-0.052863
-0.048848
-0.044583
-0.040902
-0.037891
-0.036051
-0.035131
-0.034796
-0.034796
-0.036051
-0.036971
-0.039397
-0.040651
-0.043077
-0.045837
-0.048598
-0.050354
-0.050689
-0.049434
-0.047343
-0.044917
-0.042742
-0.040317
-0.036971
-0.033291
-0.028690
-0.024424
-0.021413
-0.018653
-0.015307
-0.013132
-0.011961
-0.012212
-0.015558
-0.019573
-0.023504
-0.026850
-0.028105
-0.028690
-0.028439
-0.026599
-0.023839
-0.019573
-0.016227
-0.013132
-0.010372
-0.007026
-0.005186
-0.003680
-0.001255
0.000586
0.001506
0.000586
-0.001840
-0.004015
-0.006775
-0.010707
-0.014721
-0.017733
-0.019238
-0.019238
-0.017398
-0.014052
-0.009535
-0.004600
0.000251
0.004517
0.008532
0.011878
0.013718
0.013718
0.012463
0.008532
0.004266
-0.000669
-0.004935
-0.009201
-0.012547
-0.014721
-0.015558
-0.014721
-0.012881
-0.010121
-0.006106
-0.003095
0.000586
0.002677
0.005437
0.007863
0.009117
0.009452
0.007612
0.004851
0.002091
-0.001840
-0.005521
-0.009201
-0.010707
-0.011041
-0.010121
-0.008281
-0.005186
-0.002175
0.001171
0.003931
0.006942
0.008783
0.009703
0.010037
0.010037
0.008532
0.006942
0.003931
0.001757
0.000586
0.001171
0.003597
0.006357
0.010037
0.014638
0.020075
0.024090
0.026515
0.028690
0.029276
0.030196
0.030447
0.030781
0.030196
0.030196
0.030447
0.028690
0.025595
0.020995
0.015809
0.010623
0.004517
-0.001840
-0.007695
-0.014052
-0.018987
-0.022584
-0.024424
-0.023839
-0.022333
-0.020158
-0.016478
-0.013132
-0.009786
-0.007946
-0.007026
-0.007946
-0.010121
-0.013467
-0.016227
-0.018987
-0.020158
-0.021078
-0.022584
-0.022919
-0.022584
-0.022919
-0.024173
-0.027185
-0.029610
-0.026599
-0.011961
0.017984
0.064323
0.124798
0.194976
0.270339
0.344198
0.409190
0.455278
0.472676
0.456532
0.408019
0.329225
0.224586
0.103134
-0.023253
-0.143200
-0.247504
-0.327803
-0.379328
-0.399236
-0.388864
-0.353733
-0.299448
-0.236547
-0.172726
-0.116015
-0.069341
-0.035131
-0.013801
-0.002175
0.000920
-0.000920
-0.006441
-0.011292
-0.015307
-0.016227
-0.016227
-0.013467
-0.009535
-0.003429
0.002091
0.006106
0.009452
0.010957
0.011543
0.010957
0.009452
0.008532
0.009452
0.010372
0.011878
0.013718
0.014889
0.016478
0.017649
0.017984
0.017649
0.017398
0.017398
0.017398
0.017984
0.018904
0.020075
0.022835
0.025930
0.028941
0.032956
0.037222
0.043328
0.048765
0.053951
0.060057
0.066163
0.073189
0.080215
0.086656
0.091173
0.095188
0.097948
0.100374
0.103134
0.105225
0.107651
0.112586
0.120197
0.129984
0.142196
0.153739
0.165951
0.176072
0.180923
0.180589
0.172977
0.158674
0.138181
0.112920
0.085987
0.057631
0.030781
0.006942
-0.011627
-0.024759
-0.033625
-0.038142
-0.039982
-0.039731
-0.037556
-0.034796
-0.032120
-0.029610
-0.028690
-0.029359
-0.029945
-0.031450
-0.035131
-0.039731
-0.043662
-0.046757
-0.049183
-0.050354
-0.049183
-0.045837
-0.040651
-0.035716
-0.029610
-0.025093
-0.022333
-0.019907
-0.020158
-0.021078
-0.024173
-0.027519
-0.030865
-0.033291
-0.036051
-0.037306
-0.035716
-0.033625
-0.030279
-0.027185
-0.023253
-0.018653
-0.014972
-0.011961
-0.010372
-0.009786
-0.010121
-0.012881
-0.015558
-0.018067
-0.021078
-0.022333
-0.022333
-0.020493
-0.018067
-0.014052
-0.010372
-0.007361
-0.005186
-0.003429
-0.003429
-0.005186
-0.007695
-0.010372
-0.013467
-0.014972
-0.016227
-0.015892
-0.015307
-0.014052
-0.012547
-0.010372
-0.008281
-0.006441
-0.004266
-0.003429
-0.002509
-0.002760
-0.002760
-0.002760
-0.002760
-0.001589
-0.000669
0.000920
0.003011
0.005771
0.008197
0.010372
0.011543
0.011878
0.010037
0.007277
0.003346
-0.000669
-0.004266
-0.007946
-0.010372
-0.011961
-0.011961
-0.010707
-0.009786
-0.008866
-0.007361
-0.005855
-0.004600
-0.004266
-0.002760
-0.001840
-0.001255
-0.001255
-0.000669
-0.001255
-0.001840
-0.003680
-0.004015
-0.004266
-0.003429
-0.002175
-0.000335
0.001757
0.003597
0.005437
0.006106
0.006942
0.006692
0.006106
0.004517
0.002677
0.002426
0.001171
0.000920
-0.000669
-0.001255
-0.000920
0.000000
0.001171
0.002426
0.003597
0.003346
0.001506
-0.000335
-0.003429
-0.006441
-0.009535
-0.011627
-0.010707
-0.007695
-0.003429
0.001757
0.007863
0.014303
0.018904
0.023504
0.027101
0.030196
0.033542
0.036302
0.037807
0.039313
0.040568
0.039062
0.033876
0.025930
0.017064
0.007612
-0.001589
-0.009786
-0.016227
-0.021413
-0.023504
-0.022584
-0.019907
-0.016227
-0.011961
-0.007695
-0.004600
-0.002175
-0.001589
-0.001255
-0.002760
-0.005855
-0.007361
-0.008615
-0.008866
-0.008615
-0.007361
-0.004935
-0.002509
-0.000669
0.000000
-0.000335
-0.001840
-0.004600
-0.008615
-0.012881
-0.013801
-0.006441
0.012463
0.045419
0.093682
0.153153
0.220905
0.290832
0.359170
0.416801
0.453772
0.463559
0.442146
0.389031
0.307896
0.202336
0.082055
-0.040651
-0.154743
-0.250265
-0.321363
-0.363520
-0.374142
-0.356159
-0.315926
-0.261306
-0.201416
-0.144956
-0.096442
-0.058969
-0.032956
-0.017398
-0.008615
-0.005186
-0.003680
-0.001840
0.001757
0.004851
0.008197
0.010957
0.012212
0.012212
0.010623
0.007863
0.005186
0.002091
0.000000
0.001506
0.004851
0.009452
0.014889
0.019489
0.024090
0.027101
0.028690
0.027770
0.025595
0.023504
0.020995
0.018904
0.018235
0.019824
0.021915
0.025261
0.028690
0.032621
0.036553
0.039982
0.041739
0.043913
0.046005
0.048514
0.050940
0.053951
0.057046
0.060726
0.064992
0.070178
0.076535
0.082641
0.088747
0.095522
0.102214
0.108905
0.114426
0.119277
0.125383
0.132075
0.139436
0.147967
0.157419
0.165951
0.172977
0.175737
0.172977
0.165031
0.151648
0.131824
0.107065
0.079881
0.052445
0.026515
0.003346
-0.015892
-0.030530
-0.041237
-0.047677
-0.050689
-0.050354
-0.048263
-0.043997
-0.039731
-0.034796
-0.031450
-0.029025
-0.028690
-0.030279
-0.032956
-0.035716
-0.040317
-0.044248
-0.047343
-0.049769
-0.050689
-0.049434
-0.047343
-0.045168
-0.043662
-0.041571
-0.039397
-0.037306
-0.036385
-0.035716
-0.035465
-0.034545
-0.033625
-0.032705
-0.032370
-0.032120
-0.032370
-0.032705
-0.032120
-0.031785
-0.032120
-0.032705
-0.032705
-0.032705
-0.032956
-0.033291
-0.032956
-0.032705
-0.032120
-0.031785
-0.032120
-0.030279
-0.027519
-0.025679
-0.025093
-0.025093
-0.026013
-0.027185
-0.029025
-0.030279
-0.030865
-0.030865
-0.030530
-0.029610
-0.027185
-0.023504
-0.019573
-0.014972
-0.011292
-0.008281
-0.007026
-0.005855
-0.005855
-0.007361
-0.009201
-0.012212
-0.015558
-0.018987
-0.021078
-0.022333
-0.022333
-0.021413
-0.019907
-0.018653
-0.017733
-0.016813
-0.016478
-0.015892
-0.014721
-0.013467
-0.012547
-0.011041
-0.010121
-0.007946
-0.006106
-0.005186
-0.004935
-0.004600
-0.003680
-0.003680
-0.004015
-0.004266
-0.005186
-0.004935
-0.005186
-0.005521
-0.005855
-0.006775
-0.007361
-0.007361
-0.007026
-0.006775
-0.006441
-0.006106
-0.005521
-0.004015
-0.002175
0.000000
0.001757
0.003931
0.006357
0.008197
0.009703
0.010623
0.010623
0.012463
0.016143
0.019824
0.023755
0.027435
0.031367
0.035633
0.038393
0.040233
0.041488
0.043579
0.045754
0.047594
0.048179
0.048765
0.047845
0.045754
0.039982
0.032036
0.023504
0.014889
0.005771
-0.003095
-0.011041
-0.016478
-0.021413
-0.026013
-0.029610
-0.031450
-0.033876
-0.035465
-0.035465
-0.034211
-0.032956
-0.029610
-0.026850
-0.023253
-0.020158
-0.017733
-0.015558
-0.014972
-0.014387
-0.014052
-0.014387
-0.014387
-0.015307
-0.016813
-0.019238
-0.021664
-0.021999
-0.016813
0.000586
0.031367
0.077204
0.134835
0.201667
0.273434
0.343612
0.403418
0.443400
0.455863
0.435454
0.382340
0.299950
0.192801
0.070763
-0.053449
-0.168460
-0.266157
-0.339681
-0.383929
-0.396141
-0.379663
-0.340266
-0.285981
-0.223749
-0.162354
-0.106563
-0.060726
-0.026850
-0.004935
0.006106
0.009703
0.007612
0.001171
-0.006106
-0.013467
-0.017733
-0.018653
-0.017398
-0.014972
-0.011627
-0.007695
-0.003095
0.000251
0.003597
0.005771
0.007277
0.010037
0.013049
0.017984
0.023755
0.028941
0.033542
0.037807
0.041153
0.041739
0.042073
0.040233
0.037473
0.034127
0.030447
0.027435
0.025930
0.025261
0.026515
0.028021
0.030781
0.033207
0.035047
0.037807
0.040233
0.044499
0.049434
0.055205
0.061897
0.069509
0.077790
0.087827
0.097613
0.105225
0.112586
0.118106
0.123543
0.128144
0.133330
0.138850
0.144622
0.151062
0.157754
0.164111
0.168126
0.168460
0.164780
0.155328
0.140690
0.120783
0.096693
0.070763
0.044248
0.018235
-0.004266
-0.023504
-0.037556
-0.047008
-0.051274
-0.052863
-0.050354
-0.046757
-0.041822
-0.036971
-0.033625
-0.031785
-0.030530
-0.031785
-0.034211
-0.037891
-0.040902
-0.043662
-0.045503
-0.046088
-0.045503
-0.045168
-0.043412
-0.040902
-0.038811
-0.037556
-0.036971
-0.035716
-0.034211
-0.032956
-0.032370
-0.031785
-0.030865
-0.029610
-0.029025
-0.028690
-0.028690
-0.028439
-0.027519
-0.027185
-0.027185
-0.027519
-0.026850
-0.024759
-0.022919
-0.020493
-0.017733
-0.015558
-0.013801
-0.012881
-0.012547
-0.012881
-0.014052
-0.015307
-0.016813
-0.018067
-0.018067
-0.018318
-0.017398
-0.015892
-0.013467
-0.011627
-0.008866
-0.006106
-0.003429
-0.000669
0.002091
0.003597
0.004266
0.004266
0.002677
0.000251
-0.002509
-0.004015
-0.005186
-0.005186
-0.004935
-0.004266
-0.003429
-0.002175
-0.000920
-0.000335
-0.001255
-0.002760
-0.004015
-0.005186
-0.006775
-0.007695
-0.008281
-0.007361
-0.006106
-0.004935
-0.002760
-0.000335
0.003011
0.006106
0.008532
0.010372
0.010372
0.010037
0.008532
0.006942
0.004517
0.002091
0.000251
0.000251
0.000000
0.000251
0.002091
0.003597
0.005186
0.006357
0.007863
0.010623
0.013969
0.019155
0.025595
0.033207
0.041153
0.048514
0.054871
0.060057
0.062817
0.063152
0.062232
0.060726
0.058886
0.056711
0.054620
0.052780
0.050940
0.047845
0.042408
0.035047
0.026515
0.016729
0.006357
-0.003095
-0.011041
-0.017733
-0.021999
-0.023839
-0.023253
-0.021078
-0.016478
-0.011292
-0.006775
-0.003680
-0.001255
-0.000335
-0.000335
-0.002175
-0.005186
-0.007695
-0.010372
-0.011961
-0.013132
-0.014387
-0.015307
-0.015307
-0.017147
-0.018653
-0.021078
-0.020828
-0.012547
0.008197
0.044499
0.096693
0.161100
0.233703
0.309401
0.381420
0.440974
0.477862
0.485223
0.457703
0.396977
0.304550
0.188284
0.057631
-0.072353
-0.191714
-0.290581
-0.362265
-0.401662
-0.408019
-0.385184
-0.339095
-0.279875
-0.216389
-0.156917
-0.106563
-0.068087
-0.041237
-0.024424
-0.016478
-0.013467
-0.013132
-0.012881
-0.013132
-0.012547
-0.011961
-0.010707
-0.008615
-0.006441
-0.004266
-0.001840
0.000920
0.002677
0.005186
0.006357
0.007863
0.007612
0.006942
0.005186
0.003011
0.001171
0.000000
-0.000335
0.000251
0.001171
0.003931
0.007863
0.012463
0.016729
0.020995
0.025010
0.028356
0.030447
0.032036
0.033542
0.035047
0.036887
0.039313
0.042073
0.045754
0.050605
0.055205
0.060057
0.064072
0.068338
0.072938
0.077455
0.082055
0.086907
0.092762
0.098868
0.105894
0.113171
0.121703
0.131489
0.141861
0.151982
0.159594
0.165031
0.167206
0.164780
0.157168
0.143116
0.123878
0.100039
0.074109
0.048765
0.023504
0.000920
-0.018653
-0.033876
-0.045837
-0.054369
-0.057380
-0.057129
-0.054620
-0.051609
-0.049183
-0.046757
-0.045503
-0.045837
-0.047008
-0.051274
-0.055875
-0.061646
-0.067501
-0.071767
-0.074193
-0.074193
-0.072938
-0.070261
-0.067167
-0.064406
-0.060140
-0.055540
-0.051023
-0.047928
-0.046757
-0.046088
-0.044917
-0.045503
-0.046757
-0.049769
-0.053449
-0.056460
-0.059555
-0.062315
-0.063821
-0.065076
-0.064406
-0.062315
-0.059890
-0.057715
-0.054620
-0.051023
-0.046757
-0.041822
-0.036971
-0.032705
-0.029610
-0.027185
-0.026013
-0.025344
-0.026264
-0.029025
-0.032370
-0.034796
-0.036385
-0.036971
-0.036051
-0.033291
-0.030530
-0.028690
-0.026013
-0.024173
-0.023504
-0.025093
-0.027519
-0.031450
-0.034211
-0.038142
-0.040902
-0.043077
-0.042742
-0.040317
-0.036051
-0.030279
-0.023504
-0.016813
-0.010372
-0.005186
-0.002175
-0.001589
-0.004015
-0.007361
-0.012547
-0.017398
-0.022333
-0.026264
-0.028439
-0.028690
-0.028105
-0.025344
-0.022333
-0.019573
-0.016813
-0.014387
-0.013467
-0.012547
-0.013132
-0.014052
-0.015307
-0.015558
-0.015307
-0.014721
-0.011961
-0.009201
-0.006106
-0.004600
-0.002760
-0.002175
-0.002509
-0.001840
-0.000669
0.001506
0.004266
0.009117
0.014889
0.020744
0.026515
0.030447
0.033542
0.035047
0.036302
0.036302
0.035382
0.032036
0.027101
0.020744
0.013969
0.006106
-0.000669
-0.007361
-0.012881
-0.016813
-0.018987
-0.019238
-0.019907
-0.019238
-0.020493
-0.022333
-0.024173
-0.026264
-0.027185
-0.026599
-0.025679
-0.024759
-0.022584
-0.020493
-0.018987
-0.017733
-0.017733
-0.017398
-0.016478
-0.014972
-0.014387
-0.013132
-0.012212
-0.011292
-0.011627
-0.013132
-0.013132
-0.005855
0.012212
0.046005
0.094268
0.153739
0.221240
0.290832
0.356410
0.408604
0.439134
0.440054
0.409524
0.348129
0.261473
0.153153
0.032036
-0.087325
-0.194474
-0.283890
-0.348213
-0.384598
-0.391290
-0.372051
-0.331484
-0.277449
-0.218229
-0.160598
-0.110244
-0.069341
-0.039062
-0.018067
-0.005855
-0.000669
0.000251
-0.001589
-0.004015
-0.006106
-0.009201
-0.011961
-0.012881
-0.013132
-0.013132
-0.013132
-0.013467
-0.013132
-0.012547
-0.010372
-0.008615
-0.007026
-0.004015
-0.001255
0.001506
0.003931
0.005771
0.007277
0.008783
0.009703
0.010957
0.011543
0.013969
0.016478
0.019155
0.021915
0.024090
0.027435
0.031367
0.035633
0.037807
0.041153
0.043579
0.045168
0.046005
0.046339
0.047845
0.049685
0.051525
0.055205
0.059471
0.064657
0.071683
0.079044
0.087241
0.096108
0.105225
0.113757
0.123543
0.133915
0.144287
0.152568
0.159594
0.163274
0.162354
0.156499
0.145542
0.129649
0.108571
0.083561
0.057631
0.030781
0.005771
-0.017147
-0.036051
-0.051274
-0.061981
-0.069341
-0.073273
-0.074778
-0.074527
-0.074193
-0.073607
-0.073273
-0.073273
-0.072687
-0.072687
-0.072018
-0.071182
-0.069341
-0.066581
-0.063821
-0.061395
-0.059890
-0.058969
-0.060140
-0.062315
-0.065661
-0.068672
-0.072353
-0.074778
-0.076368
-0.075698
-0.074778
-0.071767
-0.068087
-0.063235
-0.058635
-0.054620
-0.051023
-0.048263
-0.046088
-0.044917
-0.045503
-0.046423
-0.047677
-0.048848
-0.049769
-0.050354
-0.050354
-0.049769
-0.049183
-0.048263
-0.047343
-0.046423
-0.046757
-0.046757
-0.048263
-0.049434
-0.050103
-0.049434
-0.048263
-0.046088
-0.043077
-0.039062
-0.036051
-0.032956
-0.030530
-0.028690
-0.028105
-0.028105
-0.028439
-0.029359
-0.029945
-0.030530
-0.031785
-0.032120
-0.031785
-0.031450
-0.028690
-0.026013
-0.023504
-0.019573
-0.015892
-0.013801
-0.012547
-0.012547
-0.013801
-0.016227
-0.019238
-0.022584
-0.024759
-0.026850
-0.027185
-0.026599
-0.024424
-0.021664
-0.019238
-0.016227
-0.014972
-0.014052
-0.014721
-0.014972
-0.016227
-0.018318
-0.019907
-0.020828
-0.021999
-0.021664
-0.019573
-0.016227
-0.013467
-0.010707
-0.007946
-0.005855
-0.004600
-0.004015
-0.004935
-0.004600
-0.004266
-0.002175
0.000586
0.004517
0.009703
0.014889
0.019155
0.023504
0.026515
0.030781
0.034796
0.039062
0.042659
0.045754
0.047594
0.047259
0.043579
0.037222
0.028021
0.017064
0.006942
-0.003095
-0.010707
-0.018067
-0.022919
-0.025344
-0.026264
-0.025679
-0.024424
-0.024173
-0.022919
-0.021999
-0.019907
-0.017398
-0.015892
-0.012547
-0.010121
-0.007695
-0.006441
-0.004600
-0.003429
-0.004015
-0.005186
-0.006775
-0.009201
-0.013467
-0.018318
-0.021078
-0.016478
-0.000920
0.030196
0.075949
0.135755
0.203507
0.275274
0.344198
0.403753
0.443400
0.455612
0.435789
0.385100
0.305136
0.202922
0.084230
-0.037891
-0.152317
-0.249345
-0.322952
-0.367785
-0.382758
-0.369291
-0.332069
-0.278620
-0.217643
-0.156248
-0.102548
-0.060726
-0.032120
-0.014387
-0.006775
-0.005521
-0.008281
-0.012547
-0.014972
-0.016813
-0.017147
-0.016478
-0.014387
-0.011961
-0.009786
-0.008615
-0.007695
-0.007026
-0.005186
-0.001255
0.002677
0.006942
0.012212
0.017398
0.021664
0.024675
0.026181
0.026515
0.026515
0.026181
0.025261
0.024675
0.025010
0.024341
0.025595
0.026515
0.028690
0.030781
0.032036
0.033876
0.035633
0.037222
0.039062
0.041153
0.042993
0.045419
0.049434
0.054620
0.061312
0.068589
0.076535
0.084230
0.091507
0.097948
0.103134
0.108571
0.112920
0.117437
0.124212
0.133664
0.146127
0.160179
0.173897
0.185524
0.191630
0.191630
0.184604
0.169297
0.146127
0.117186
0.085401
0.053951
0.023755
-0.003429
-0.026264
-0.044248
-0.057129
-0.065661
-0.070847
-0.072353
-0.071182
-0.068087
-0.062566
-0.056795
-0.050689
-0.045837
-0.042742
-0.041571
-0.039982
-0.040317
-0.040902
-0.042157
-0.044248
-0.046757
-0.048263
-0.049183
-0.049183
-0.049183
-0.049769
-0.050354
-0.050689
-0.051274
-0.051023
-0.051609
-0.051609
-0.051943
-0.051274
-0.050103
-0.048848
-0.046757
-0.045503
-0.045168
-0.045837
-0.047343
-0.049183
-0.050689
-0.051023
-0.050103
-0.049183
-0.046423
-0.042491
-0.038811
-0.036051
-0.034796
-0.035131
-0.035716
-0.036385
-0.036051
-0.035716
-0.034545
-0.032120
-0.029359
-0.026013
-0.023504
-0.022333
-0.022333
-0.022584
-0.023839
-0.024173
-0.025344
-0.026013
-0.026264
-0.024759
-0.024173
-0.022333
-0.021999
-0.021664
-0.021413
-0.020828
-0.020158
-0.019238
-0.019238
-0.019573
-0.018318
-0.018318
-0.017733
-0.016813
-0.016227
-0.015892
-0.014972
-0.013467
-0.011292
-0.010121
-0.008866
-0.008615
-0.007946
-0.007361
-0.007026
-0.006775
-0.005186
-0.002175
0.003346
0.007863
0.013049
0.017649
0.020995
0.023504
0.024675
0.025930
0.027770
0.030196
0.033876
0.038393
0.043913
0.047259
0.048514
0.045419
0.037807
0.026515
0.012463
-0.002175
-0.016227
-0.028439
-0.036385
-0.040651
-0.041822
-0.039397
-0.034796
-0.029610
-0.024424
-0.020828
-0.019573
-0.019907
-0.020828
-0.023253
-0.026850
-0.031450
-0.036051
-0.039731
-0.041571
-0.042491
-0.042491
-0.040651
-0.039062
-0.036385
-0.035131
-0.033291
-0.027185
-0.011292
0.018235
0.063152
0.121703
0.190124
0.263062
0.335666
0.399738
0.446411
0.467155
0.454358
0.407098
0.328640
0.223331
0.100039
-0.030530
-0.155997
-0.266743
-0.354319
-0.413539
-0.440138
-0.434952
-0.401912
-0.347962
-0.282301
-0.214548
-0.151731
-0.099788
-0.059220
-0.032120
-0.016813
-0.012547
-0.015307
-0.021413
-0.028105
-0.034545
-0.037556
-0.039397
-0.038477
-0.035716
-0.030530
-0.024759
-0.019238
-0.014972
-0.010372
-0.007026
-0.004015
-0.002760
-0.001840
-0.000669
0.001171
0.003011
0.003931
0.005437
0.007863
0.010037
0.011292
0.012463
0.013718
0.013383
0.013049
0.011292
0.010037
0.010037
0.010037
0.011292
0.012798
0.015223
0.018569
0.022584
0.027101
0.032621
0.037473
0.042659
0.048765
0.055540
0.062817
0.070429
0.079044
0.088161
0.097279
0.106814
0.115931
0.124798
0.133330
0.142447
0.151062
0.159259
0.165031
0.168460
0.168711
0.165031
0.156499
0.142447
0.122038
0.096359
0.068589
0.039062
0.010623
-0.016227
-0.038142
-0.054620
-0.065912
-0.070847
-0.071433
-0.068421
-0.063235
-0.055875
-0.049434
-0.043412
-0.037891
-0.035465
-0.035716
-0.037306
-0.039982
-0.044248
-0.048848
-0.053783
-0.057715
-0.061646
-0.065076
-0.067501
-0.068087
-0.067167
-0.065326
-0.062901
-0.059555
-0.055289
-0.051274
-0.047008
-0.043997
-0.042491
-0.041822
-0.042742
-0.044583
-0.047343
-0.050354
-0.051943
-0.052863
-0.051609
-0.047928
-0.043997
-0.040902
-0.038811
-0.036971
-0.036385
-0.036636
-0.037891
-0.039731
-0.040902
-0.042491
-0.042491
-0.040651
-0.039062
-0.037306
-0.036051
-0.034796
-0.034211
-0.034545
-0.035131
-0.035131
-0.034545
-0.031450
-0.027770
-0.021664
-0.015892
-0.010372
-0.006106
-0.003429
-0.003429
-0.005855
-0.009786
-0.015558
-0.021413
-0.028105
-0.033291
-0.037556
-0.038811
-0.038142
-0.035465
-0.031450
-0.026264
-0.020828
-0.013132
-0.006106
-0.000920
0.003011
0.004517
0.004851
0.005771
0.009117
0.014303
0.020075
0.028021
0.037473
0.046339
0.054871
0.060726
0.065577
0.067083
0.065912
0.062232
0.056711
0.050354
0.042993
0.034796
0.025261
0.014638
0.003011
-0.008866
-0.019238
-0.028439
-0.034545
-0.038142
-0.039397
-0.038811
-0.036051
-0.032705
-0.028439
-0.025093
-0.022919
-0.021664
-0.022919
-0.023839
-0.026013
-0.028690
-0.031785
-0.035131
-0.037891
-0.039731
-0.040317
-0.040317
-0.039397
-0.038142
-0.036385
-0.031785
-0.021078
0.000920
0.035967
0.084230
0.144036
0.212039
0.284057
0.352729
0.412284
0.452517
0.465064
0.444320
0.389700
0.303881
0.193135
0.065912
-0.063821
-0.185607
-0.288407
-0.364440
-0.409608
-0.421151
-0.403167
-0.361679
-0.305219
-0.242653
-0.182262
-0.129147
-0.086070
-0.055289
-0.034796
-0.022919
-0.016813
-0.014387
-0.014972
-0.014972
-0.015307
-0.013801
-0.011961
-0.009535
-0.007361
-0.004600
-0.002760
-0.001840
-0.003095
-0.004600
-0.005521
-0.005186
-0.003680
-0.003095
-0.001255
0.002677
0.007277
0.011543
0.016478
0.019489
0.021664
0.022584
0.023504
0.024341
0.024675
0.025261
0.027101
0.030196
0.033542
0.036887
0.041488
0.045419
0.049685
0.053365
0.056711
0.060391
0.063152
0.066163
0.070429
0.075029
0.081470
0.089416
0.097948
0.104974
0.112251
0.119277
0.127558
0.136341
0.145207
0.153739
0.162940
0.172977
0.182764
0.189204
0.191630
0.188535
0.180338
0.165365
0.144036
0.117437
0.087576
0.057046
0.028356
0.002091
-0.018987
-0.035131
-0.045837
-0.052194
-0.055875
-0.056795
-0.055875
-0.053783
-0.050689
-0.048598
-0.046757
-0.044917
-0.043077
-0.041822
-0.041237
-0.040902
-0.040651
-0.041822
-0.043662
-0.045837
-0.047677
-0.049769
-0.051943
-0.053449
-0.054034
-0.054369
-0.054034
-0.053449
-0.051609
-0.048598
-0.045168
-0.041822
-0.038477
-0.035465
-0.032120
-0.029945
-0.029359
-0.030279
-0.033291
-0.037306
-0.043077
-0.048598
-0.053783
-0.057715
-0.059220
-0.058969
-0.057129
-0.054369
-0.050103
-0.045503
-0.041822
-0.038811
-0.035716
-0.033876
-0.032705
-0.030865
-0.029945
-0.028439
-0.027185
-0.026013
-0.025679
-0.026599
-0.028690
-0.031199
-0.033876
-0.036385
-0.038142
-0.039982
-0.039982
-0.037891
-0.034545
-0.030279
-0.026599
-0.024424
-0.022333
-0.020828
-0.019907
-0.019238
-0.019238
-0.019238
-0.019238
-0.018067
-0.016227
-0.015558
-0.014052
-0.009201
-0.002760
0.004517
0.011878
0.020744
0.029527
0.037807
0.044834
0.050605
0.053951
0.055791
0.055791
0.053951
0.050354
0.044834
0.036887
0.028021
0.017398
0.006692
-0.003429
-0.011627
-0.018318
-0.023504
-0.026599
-0.029025
-0.032120
-0.034796
-0.039397
-0.044248
-0.049183
-0.052529
-0.055540
-0.057380
-0.058049
-0.056795
-0.053783
-0.050103
-0.046757
-0.043077
-0.039397
-0.037556
-0.036385
-0.036971
-0.038142
-0.041237
-0.045503
-0.046757
-0.040902
-0.021664
0.013718
0.065912
0.131824
0.207188
0.286232
0.362850
0.427842
0.470250
0.481542
0.455278
0.391791
0.295684
0.174817
0.040233
-0.095522
-0.220069
-0.322952
-0.395806
-0.434283
-0.438298
-0.411448
-0.362599
-0.299448
-0.232867
-0.170970
-0.118775
-0.078124
-0.050689
-0.035131
-0.027770
-0.027185
-0.030865
-0.034545
-0.036636
-0.036971
-0.035716
-0.032705
-0.028105
-0.023253
-0.018318
-0.014387
-0.012547
-0.012547
-0.013801
-0.015307
-0.016813
-0.018318
-0.018318
-0.017147
-0.015558
-0.013467
-0.011041
-0.007695
-0.004015
-0.001255
0.000586
0.002091
0.002677
0.004266
0.004851
0.006692
0.008197
0.008783
0.009452
0.010957
0.014889
0.020075
0.027435
0.035382
0.044248
0.053951
0.062232
0.069843
0.076284
0.080801
0.082390
0.082641
0.082975
0.083896
0.085987
0.090002
0.096108
0.104305
0.114091
0.125969
0.138516
0.149808
0.157419
0.159594
0.156248
0.145876
0.129649
0.107065
0.080801
0.052780
0.024341
-0.002175
-0.025344
-0.044248
-0.058300
-0.068087
-0.074193
-0.077204
-0.078124
-0.077873
-0.076953
-0.075113
-0.073607
-0.072353
-0.070847
-0.069592
-0.069341
-0.070261
-0.071433
-0.074193
-0.076368
-0.077204
-0.078793
-0.079379
-0.079044
-0.078124
-0.076033
-0.072687
-0.070512
-0.068672
-0.067501
-0.067501
-0.068087
-0.069341
-0.070261
-0.071433
-0.072687
-0.073273
-0.074527
-0.076033
-0.077873
-0.079379
-0.080299
-0.081219
-0.081219
-0.081219
-0.080299
-0.079713
-0.079044
-0.077204
-0.074778
-0.072018
-0.069007
-0.065326
-0.061395
-0.056209
-0.052529
-0.049769
-0.049183
-0.049769
-0.051943
-0.054620
-0.058300
-0.062566
-0.065326
-0.066247
-0.065912
-0.065661
-0.063821
-0.061646
-0.059555
-0.057129
-0.054955
-0.054369
-0.054034
-0.054034
-0.054034
-0.054620
-0.054955
-0.054955
-0.054620
-0.052863
-0.051023
-0.047008
-0.043662
-0.039982
-0.036971
-0.034796
-0.033625
-0.033625
-0.032370
-0.028105
-0.022584
-0.015892
-0.008281
0.000251
0.010037
0.018569
0.026850
0.032036
0.036302
0.039062
0.040233
0.040233
0.037222
0.032956
0.025595
0.015558
0.002426
-0.012212
-0.027185
-0.041571
-0.053783
-0.064155
-0.071767
-0.076618
-0.079044
-0.079964
-0.079379
-0.076953
-0.074778
-0.072353
-0.070261
-0.068421
-0.066247
-0.065076
-0.063235
-0.061646
-0.060475
-0.059555
-0.059555
-0.058969
-0.058049
-0.058635
-0.060475
-0.064155
-0.067501
-0.065912
-0.054955
-0.028690
0.014638
0.073524
0.143116
0.218814
0.294429
0.362850
0.413790
0.437880
0.428762
0.384514
0.309067
0.208359
0.090002
-0.035716
-0.155328
-0.259466
-0.341186
-0.394970
-0.419060
-0.413539
-0.382758
-0.332989
-0.274103
-0.213963
-0.159343
-0.115095
-0.081554
-0.059555
-0.048263
-0.044583
-0.046088
-0.048598
-0.050689
-0.051609
-0.050689
-0.049434
-0.045837
-0.040651
-0.035131
-0.029359
-0.024424
-0.020493
-0.016813
-0.014972
-0.014972
-0.017147
-0.019573
-0.022333
-0.025093
-0.026850
-0.028105
-0.027519
-0.025344
-0.022333
-0.018653
-0.014721
-0.010707
-0.007361
-0.005186
-0.004015
-0.003095
-0.000920
0.000000
0.002091
0.004517
0.007277
0.010623
0.015558
0.021329
0.027770
0.035382
0.042659
0.050605
0.057297
0.062566
0.066832
0.071349
0.075949
0.079630
0.084816
0.090587
0.099453
0.110411
0.123292
0.135755
0.147967
0.158339
0.165365
0.166871
0.162605
0.152233
0.134584
0.110411
0.082055
0.051860
0.021329
-0.008281
-0.035131
-0.058635
-0.077204
-0.091256
-0.099537
-0.102883
-0.103468
-0.101043
-0.095857
-0.087911
-0.079379
-0.071433
-0.064406
-0.058300
-0.054034
-0.052529
-0.052863
-0.055289
-0.059555
-0.064406
-0.069592
-0.074527
-0.079379
-0.082139
-0.082725
-0.080633
-0.077204
-0.072938
-0.068672
-0.065326
-0.062315
-0.059890
-0.057715
-0.056460
-0.056460
-0.057129
-0.057715
-0.058049
-0.058969
-0.061395
-0.064155
-0.067752
-0.070512
-0.072938
-0.075447
-0.076033
-0.075113
-0.071767
-0.065326
-0.058300
-0.052529
-0.047008
-0.042491
-0.039062
-0.038142
-0.039062
-0.041822
-0.045168
-0.050103
-0.054955
-0.059220
-0.061395
-0.061646
-0.059555
-0.055875
-0.051943
-0.047677
-0.043077
-0.037306
-0.031785
-0.027185
-0.023504
-0.021664
-0.019907
-0.019907
-0.021413
-0.023504
-0.026850
-0.031450
-0.036051
-0.039397
-0.042157
-0.043997
-0.043662
-0.042157
-0.039397
-0.036385
-0.032956
-0.028105
-0.024759
-0.023253
-0.022333
-0.022584
-0.023504
-0.025093
-0.026599
-0.029359
-0.031785
-0.032370
-0.032120
-0.030865
-0.029610
-0.028690
-0.027770
-0.026599
-0.024759
-0.023504
-0.022333
-0.021999
-0.021078
-0.019238
-0.018653
-0.018987
-0.019907
-0.021413
-0.023504
-0.025344
-0.027185
-0.026264
-0.024424
-0.021078
-0.017147
-0.011627
-0.005855
0.000000
0.003931
0.005771
0.005437
0.002677
-0.002175
-0.006106
-0.008866
-0.010372
-0.011041
-0.010121
-0.007695
-0.004015
0.000586
0.005437
0.009703
0.014889
0.018904
0.022584
0.025010
0.026515
0.027101
0.026515
0.024090
0.020744
0.015809
0.009452
0.003931
-0.000669
-0.004015
-0.007026
-0.009535
-0.010121
-0.011292
-0.012881
-0.014387
-0.015558
-0.018067
-0.020493
-0.022333
-0.022584
-0.022584
-0.020493
-0.017733
-0.015307
-0.011292
-0.006441
-0.002175
0.001171
0.003931
0.005437
0.005437
0.005437
0.004851
0.003597
0.002677
0.000586
-0.002509
-0.006441
-0.006441
0.002091
0.024090
0.061312
0.113757
0.178498
0.249596
0.321948
0.389700
0.442480
0.471421
0.469916
0.434199
0.368036
0.274354
0.161434
0.039062
-0.079713
-0.184353
-0.268583
-0.327218
-0.356744
-0.356744
-0.331735
-0.287487
-0.233536
-0.175486
-0.122372
-0.077873
-0.043412
-0.019238
-0.005521
0.001506
0.002677
0.000586
-0.001255
-0.002760
-0.002760
-0.001255
0.002091
0.006942
0.012463
0.017398
0.021329
0.025930
0.029527
0.031701
0.032956
0.033542
0.033876
0.033207
0.032956
0.030447
0.028021
0.025261
0.020744
0.016729
0.013049
0.011292
0.011543
0.013383
0.017398
0.022835
0.030447
0.038142
0.044499
0.049434
0.053031
0.055205
0.056711
0.057631
0.058551
0.060057
0.062817
0.066832
0.072604
0.077790
0.083896
0.090002
0.094268
0.098199
0.101628
0.105894
0.110160
0.117186
0.124212
0.133330
0.145542
0.159259
0.173312
0.185189
0.194641
0.198907
0.197736
0.188870
0.172977
0.151313
0.124798
0.095773
0.066163
0.037222
0.012463
-0.007695
-0.022919
-0.032705
-0.036385
-0.036385
-0.034211
-0.030530
-0.026850
-0.023839
-0.022333
-0.022333
-0.024173
-0.026850
-0.029025
-0.031199
-0.031785
-0.030865
-0.028690
-0.026599
-0.023253
-0.021078
-0.018653
-0.018653
-0.019907
-0.022584
-0.026013
-0.029025
-0.032370
-0.034545
-0.036385
-0.037556
-0.037306
-0.035465
-0.032956
-0.029610
-0.026264
-0.022584
-0.018318
-0.014052
-0.011041
-0.008615
-0.008281
-0.007695
-0.007695
-0.008281
-0.008615
-0.008866
-0.009786
-0.010372
-0.010121
-0.011041
-0.011041
-0.011041
-0.009786
-0.009201
-0.007946
-0.006106
-0.004015
-0.000920
0.002091
0.004517
0.006357
0.007277
0.007612
0.006942
0.005437
0.003346
0.000586
-0.002760
-0.006775
-0.009201
-0.011041
-0.011961
-0.010707
-0.008281
-0.005186
-0.001255
0.003346
0.007863
0.011292
0.013718
0.015558
0.015558
0.015558
0.014889
0.013969
0.013383
0.014303
0.014889
0.017064
0.020075
0.023755
0.027101
0.030196
0.032621
0.033207
0.031701
0.028356
0.023755
0.018235
0.011878
0.005771
0.000920
-0.000669
0.001171
0.007277
0.016478
0.028690
0.041488
0.053365
0.064992
0.074444
0.080550
0.081721
0.079630
0.074109
0.066832
0.058886
0.049685
0.040568
0.032036
0.024090
0.017064
0.011292
0.006357
0.003011
0.000251
-0.001255
-0.001589
-0.000669
0.001506
0.002091
0.002677
0.004266
0.004517
0.005186
0.006357
0.007863
0.008532
0.008532
0.007863
0.007612
0.006357
0.003931
-0.001255
-0.006775
-0.011961
-0.015892
-0.017733
-0.018318
-0.018318
-0.017398
-0.014972
-0.006441
0.011292
0.041153
0.086321
0.144956
0.212959
0.286567
0.361261
0.429013
0.478782
0.501701
0.490659
0.443400
0.364021
0.256036
0.129064
-0.004935
-0.132493
-0.242988
-0.327469
-0.379998
-0.398901
-0.386355
-0.347962
-0.291167
-0.227430
-0.163023
-0.107483
-0.063235
-0.030865
-0.010121
0.001506
0.005186
0.004517
0.001171
-0.002175
-0.004935
-0.006775
-0.007026
-0.006441
-0.004935
-0.003680
-0.002175
-0.000669
0.001506
0.003931
0.006942
0.010037
0.012798
0.015558
0.019824
0.022835
0.025261
0.027770
0.028941
0.028941
0.028356
0.028690
0.028941
0.029861
0.030447
0.032036
0.034462
0.037222
0.041153
0.043913
0.045419
0.046674
0.047845
0.047259
0.047259
0.047259
0.047845
0.050605
0.054620
0.061646
0.070429
0.080801
0.090587
0.101294
0.111331
0.121117
0.130235
0.138516
0.145542
0.153153
0.160514
0.168126
0.175152
0.179752
0.182429
0.180923
0.175737
0.166871
0.151648
0.131489
0.107651
0.080801
0.053031
0.025261
-0.000669
-0.023504
-0.041571
-0.054620
-0.062901
-0.066581
-0.066832
-0.063235
-0.059890
-0.056795
-0.052863
-0.049434
-0.046757
-0.045168
-0.044917
-0.045503
-0.046757
-0.047928
-0.049769
-0.051023
-0.051274
-0.052194
-0.051943
-0.049769
-0.046088
-0.041822
-0.038142
-0.035465
-0.034545
-0.033876
-0.035465
-0.037556
-0.041237
-0.044583
-0.047928
-0.050689
-0.052863
-0.053783
-0.054620
-0.055540
-0.055540
-0.053783
-0.051023
-0.047343
-0.043997
-0.038811
-0.032956
-0.027519
-0.023839
-0.021664
-0.020493
-0.020158
-0.020828
-0.022333
-0.024173
-0.024173
-0.023504
-0.021413
-0.018987
-0.016813
-0.015558
-0.015307
-0.016227
-0.019238
-0.023253
-0.027185
-0.030279
-0.033291
-0.034796
-0.033876
-0.031450
-0.028439
-0.024759
-0.020158
-0.015558
-0.011961
-0.009535
-0.007946
-0.006775
-0.006441
-0.006775
-0.007695
-0.008866
-0.009786
-0.011292
-0.012547
-0.014052
-0.015558
-0.017733
-0.020493
-0.022584
-0.024173
-0.025093
-0.024173
-0.022919
-0.021664
-0.020158
-0.018067
-0.016478
-0.015558
-0.015892
-0.017147
-0.019573
-0.022333
-0.024424
-0.024759
-0.022333
-0.019238
-0.015558
-0.011961
-0.007946
-0.004266
-0.000920
0.001757
0.005437
0.008783
0.012212
0.015809
0.021329
0.026515
0.031367
0.035047
0.037807
0.039982
0.040819
0.040819
0.039313
0.036553
0.032956
0.027770
0.020995
0.012463
0.002677
-0.007946
-0.017147
-0.024759
-0.029945
-0.032956
-0.033625
-0.032956
-0.031450
-0.029025
-0.027770
-0.027185
-0.027519
-0.028690
-0.029945
-0.030530
-0.031450
-0.030530
-0.029359
-0.027519
-0.026013
-0.024173
-0.022584
-0.020828
-0.019238
-0.019238
-0.020158
-0.020828
-0.022333
-0.021413
-0.013801
0.006106
0.041153
0.091842
0.155328
0.227932
0.303630
0.375063
0.434534
0.472341
0.479702
0.452517
0.390871
0.297524
0.180338
0.051274
-0.078793
-0.198070
-0.296018
-0.365360
-0.402247
-0.405927
-0.381169
-0.334244
-0.273769
-0.209697
-0.150142
-0.099788
-0.061646
-0.036051
-0.021413
-0.014721
-0.012881
-0.015307
-0.019238
-0.023504
-0.027185
-0.029945
-0.032370
-0.033291
-0.033625
-0.032705
-0.031199
-0.029025
-0.026013
-0.022919
-0.020493
-0.018318
-0.016813
-0.015307
-0.013132
-0.010707
-0.007026
-0.004015
-0.000920
0.002677
0.006357
0.009452
0.010957
0.012212
0.013049
0.013049
0.011878
0.010623
0.010037
0.010372
0.010372
0.010957
0.012212
0.014889
0.018569
0.023504
0.029861
0.036887
0.045168
0.054620
0.064323
0.073189
0.082055
0.089667
0.096108
0.101879
0.107651
0.113757
0.120783
0.129649
0.140021
0.151982
0.162940
0.170886
0.175403
0.173646
0.164111
0.147633
0.125049
0.096693
0.066163
0.035047
0.005771
-0.019907
-0.040902
-0.057129
-0.068672
-0.074527
-0.076953
-0.077873
-0.077873
-0.077873
-0.077204
-0.076368
-0.076618
-0.076033
-0.074778
-0.074527
-0.073607
-0.072353
-0.070847
-0.069007
-0.067167
-0.065661
-0.065076
-0.063235
-0.061981
-0.060726
-0.060726
-0.061981
-0.062566
-0.064155
-0.065076
-0.067167
-0.069341
-0.070261
-0.070847
-0.071182
-0.070847
-0.070847
-0.070512
-0.071767
-0.072938
-0.073858
-0.073273
-0.072018
-0.070512
-0.068087
-0.064406
-0.060726
-0.057129
-0.054369
-0.051943
-0.050689
-0.049769
-0.050354
-0.051943
-0.053449
-0.053783
-0.054369
-0.054369
-0.054369
-0.053783
-0.052863
-0.050354
-0.048598
-0.047008
-0.046423
-0.046088
-0.046088
-0.046757
-0.047343
-0.047343
-0.047008
-0.047008
-0.046757
-0.046088
-0.045503
-0.045503
-0.045837
-0.045168
-0.045503
-0.045837
-0.045503
-0.043412
-0.040651
-0.037891
-0.034545
-0.032370
-0.030530
-0.028690
-0.027519
-0.027770
-0.028690
-0.029610
-0.031450
-0.032956
-0.033876
-0.033876
-0.034211
-0.034796
-0.035131
-0.034545
-0.033625
-0.032120
-0.031450
-0.030530
-0.029610
-0.029025
-0.029025
-0.028439
-0.027185
-0.025679
-0.023839
-0.022333
-0.020493
-0.017398
-0.015558
-0.014052
-0.013801
-0.015307
-0.018653
-0.022333
-0.025093
-0.025344
-0.024173
-0.020828
-0.015558
-0.008866
-0.001255
0.006106
0.012463
0.017984
0.022249
0.025261
0.026850
0.028021
0.027101
0.024341
0.020075
0.013383
0.004517
-0.005855
-0.016813
-0.026850
-0.035716
-0.042491
-0.046423
-0.047343
-0.044917
-0.040651
-0.036971
-0.033876
-0.031199
-0.028690
-0.027519
-0.028105
-0.030865
-0.035131
-0.040651
-0.045168
-0.047928
-0.050689
-0.052194
-0.051943
-0.051023
-0.047928
-0.043997
-0.039062
-0.035131
-0.031450
-0.029945
-0.029610
-0.032120
-0.035131
-0.035716
-0.027770
-0.007026
0.030781
0.085150
0.151648
0.226091
0.303044
0.373808
0.428428
0.457703
0.454943
0.417721
0.348798
0.250850
0.132409
0.004517
-0.120281
-0.232281
-0.323203
-0.387024
-0.420231
-0.422405
-0.396141
-0.348213
-0.287487
-0.222244
-0.159929
-0.104138
-0.060475
-0.029025
-0.011041
-0.003680
-0.004600
-0.009786
-0.018067
-0.027185
-0.035716
-0.043662
-0.047677
-0.048263
-0.046088
-0.042491
-0.036636
-0.030530
-0.024759
-0.018653
-0.013132
-0.008866
-0.005521
-0.004266
-0.004015
-0.004935
-0.006775
-0.008281
-0.009201
-0.010707
-0.011961
-0.011041
-0.008866
-0.005521
-0.000920
0.003931
0.007863
0.012798
0.016143
0.018904
0.020995
0.021915
0.022835
0.024090
0.025010
0.027435
0.030781
0.035047
0.041153
0.047259
0.053365
0.059806
0.067083
0.074444
0.082390
0.089667
0.099453
0.110745
0.122372
0.135504
0.147047
0.159259
0.169966
0.176657
0.179418
0.175403
0.165031
0.148302
0.127223
0.101879
0.073524
0.044834
0.017984
-0.005186
-0.024424
-0.039982
-0.050354
-0.056209
-0.059555
-0.061061
-0.062566
-0.063821
-0.065912
-0.069007
-0.072938
-0.076368
-0.079713
-0.082139
-0.084230
-0.083979
-0.082139
-0.079044
-0.075698
-0.072353
-0.069341
-0.066581
-0.065076
-0.065326
-0.065661
-0.067167
-0.071433
-0.075698
-0.080299
-0.083979
-0.086405
-0.088496
-0.088831
-0.085819
-0.082474
-0.077539
-0.072353
-0.067501
-0.062901
-0.059890
-0.058300
-0.056795
-0.055540
-0.054369
-0.053114
-0.052863
-0.051609
-0.049434
-0.047343
-0.047343
-0.048598
-0.051274
-0.055875
-0.060726
-0.065912
-0.069341
-0.070261
-0.069927
-0.067501
-0.062566
-0.055875
-0.047677
-0.039062
-0.032120
-0.026599
-0.022919
-0.019573
-0.018067
-0.018653
-0.020493
-0.022584
-0.024424
-0.026264
-0.028439
-0.030279
-0.031450
-0.031450
-0.030279
-0.030530
-0.030865
-0.031450
-0.032370
-0.033625
-0.034545
-0.035716
-0.036385
-0.035131
-0.033291
-0.029359
-0.026264
-0.024424
-0.022919
-0.022919
-0.022584
-0.022333
-0.021413
-0.019907
-0.018067
-0.015892
-0.014387
-0.013801
-0.012881
-0.012881
-0.014387
-0.017733
-0.020828
-0.022584
-0.021664
-0.019907
-0.017733
-0.014721
-0.011292
-0.006775
-0.002760
0.000251
0.002426
0.004517
0.005186
0.004266
0.002677
0.000920
-0.001840
-0.004600
-0.007695
-0.011041
-0.013467
-0.014972
-0.015892
-0.014972
-0.013467
-0.012212
-0.011292
-0.009786
-0.008866
-0.007695
-0.007361
-0.007695
-0.007695
-0.008866
-0.009786
-0.011041
-0.012212
-0.014721
-0.018318
-0.022333
-0.026013
-0.027770
-0.027185
-0.024759
-0.020493
-0.013467
-0.004600
0.005771
0.016478
0.026181
0.033542
0.038393
0.041488
0.042408
0.040568
0.036553
0.030781
0.023170
0.015223
0.006357
-0.001840
-0.008615
-0.014721
-0.018653
-0.020828
-0.021999
-0.022919
-0.022584
-0.021413
-0.020158
-0.020828
-0.021413
-0.022919
-0.024759
-0.026599
-0.029610
-0.032120
-0.033625
-0.034545
-0.033876
-0.031450
-0.027519
-0.022584
-0.018067
-0.014052
-0.011292
-0.008866
-0.008281
-0.008281
-0.011627
-0.015558
-0.018318
-0.013801
0.001506
0.030781
0.075949
0.134835
0.202336
0.274940
0.346958
0.410444
0.455863
0.473930
0.459878
0.411615
0.333826
0.229772
0.109825
-0.015892
-0.135504
-0.240227
-0.322617
-0.375732
-0.395555
-0.385769
-0.351893
-0.302124
-0.242988
-0.181592
-0.125132
-0.078124
-0.041571
-0.014721
0.003011
0.012463
0.016143
0.016729
0.013383
0.008197
0.002091
-0.004600
-0.011041
-0.017147
-0.021999
-0.025344
-0.027519
-0.028439
-0.026850
-0.024173
-0.020158
-0.015892
-0.011627
-0.007695
-0.004600
-0.002760
-0.002175
-0.001840
-0.002175
-0.001255
0.000000
0.002091
0.004851
0.009117
0.013383
0.017984
0.022249
0.025930
0.028941
0.031367
0.033542
0.035633
0.037473
0.038727
0.039982
0.041153
0.042993
0.045419
0.049099
0.053951
0.060391
0.067083
0.075364
0.084230
0.093682
0.103134
0.112000
0.120197
0.128478
0.137595
0.146127
0.154408
0.161100
0.165951
0.168460
0.166871
0.160179
0.149222
0.132995
0.111666
0.087827
0.062566
0.036553
0.012212
-0.009786
-0.028690
-0.043997
-0.056460
-0.065661
-0.071767
-0.074778
-0.076033
-0.076033
-0.074193
-0.070261
-0.064741
-0.058635
-0.052863
-0.047928
-0.043662
-0.040902
-0.040651
-0.041571
-0.044917
-0.049183
-0.053783
-0.058969
-0.063821
-0.067752
-0.069927
-0.070847
-0.069007
-0.066247
-0.062315
-0.057380
-0.051943
-0.046757
-0.042157
-0.039062
-0.038142
-0.039731
-0.042157
-0.043997
-0.046088
-0.047677
-0.047343
-0.046088
-0.043997
-0.042491
-0.041237
-0.040651
-0.040902
-0.042742
-0.046088
-0.049434
-0.053783
-0.056209
-0.057715
-0.057380
-0.056795
-0.054034
-0.049769
-0.046757
-0.043997
-0.042157
-0.041237
-0.039982
-0.040651
-0.041571
-0.042742
-0.043997
-0.044583
-0.043662
-0.040902
-0.037891
-0.034545
-0.031450
-0.029610
-0.029025
-0.029610
-0.030530
-0.030865
-0.030530
-0.030530
-0.030530
-0.030279
-0.029359
-0.028690
-0.029610
-0.032120
-0.035465
-0.039397
-0.042742
-0.045168
-0.044917
-0.043997
-0.041237
-0.037556
-0.033291
-0.028690
-0.025344
-0.022919
-0.022584
-0.022919
-0.023839
-0.025344
-0.027770
-0.030279
-0.033291
-0.035131
-0.035465
-0.035131
-0.033876
-0.031199
-0.028439
-0.023504
-0.019573
-0.015307
-0.011292
-0.008281
-0.007026
-0.005521
-0.005855
-0.006775
-0.007026
-0.007695
-0.007361
-0.007026
-0.006775
-0.005186
-0.004015
-0.002175
0.000251
0.003011
0.006942
0.011878
0.016478
0.020075
0.022249
0.022249
0.021329
0.017649
0.011878
0.003931
-0.006775
-0.017398
-0.026850
-0.035716
-0.043077
-0.047928
-0.050689
-0.050689
-0.049434
-0.045837
-0.041822
-0.036971
-0.032705
-0.029359
-0.027519
-0.027185
-0.027770
-0.029025
-0.030279
-0.031450
-0.030865
-0.030530
-0.030530
-0.030865
-0.029945
-0.029359
-0.029025
-0.028690
-0.030530
-0.033625
-0.031785
-0.020828
0.004517
0.043913
0.097613
0.161100
0.231277
0.304216
0.371048
0.421987
0.448252
0.443066
0.404338
0.334160
0.237383
0.121117
-0.004600
-0.124881
-0.230776
-0.314337
-0.369291
-0.393130
-0.386689
-0.355573
-0.306725
-0.248425
-0.188033
-0.134584
-0.091256
-0.059220
-0.038477
-0.026599
-0.022333
-0.023504
-0.026599
-0.030530
-0.032956
-0.034796
-0.035465
-0.034545
-0.032705
-0.029945
-0.026599
-0.022584
-0.018318
-0.013801
-0.007946
-0.002175
0.003011
0.006942
0.009117
0.009452
0.009117
0.006692
0.002677
-0.002175
-0.005855
-0.008281
-0.009201
-0.008615
-0.005521
0.000251
0.007863
0.014889
0.021664
0.027770
0.032956
0.036887
0.039982
0.041153
0.041488
0.041739
0.043913
0.048179
0.054871
0.061897
0.069843
0.079630
0.089667
0.100039
0.108320
0.115597
0.122038
0.128144
0.132744
0.138516
0.144622
0.151648
0.159259
0.165700
0.171471
0.172977
0.170217
0.162354
0.147967
0.128729
0.104639
0.077455
0.050940
0.025261
0.003011
-0.016227
-0.031450
-0.041822
-0.048263
-0.052529
-0.054620
-0.055540
-0.056209
-0.057129
-0.057715
-0.058049
-0.057715
-0.057380
-0.056460
-0.055289
-0.053783
-0.053449
-0.053449
-0.055540
-0.058969
-0.063821
-0.069007
-0.073273
-0.076033
-0.076953
-0.075447
-0.072687
-0.068421
-0.063821
-0.059555
-0.056795
-0.056460
-0.055875
-0.055540
-0.056209
-0.057129
-0.057380
-0.056795
-0.055540
-0.053449
-0.050689
-0.047928
-0.045503
-0.043077
-0.041237
-0.041237
-0.041822
-0.042742
-0.044248
-0.046757
-0.048263
-0.048848
-0.048598
-0.047343
-0.045503
-0.043077
-0.039397
-0.035465
-0.031199
-0.026599
-0.022919
-0.019238
-0.015558
-0.011961
-0.010121
-0.009535
-0.011041
-0.014052
-0.018067
-0.022919
-0.028690
-0.033291
-0.036636
-0.038811
-0.039397
-0.038811
-0.036385
-0.032370
-0.027770
-0.022919
-0.018653
-0.015307
-0.012212
-0.010372
-0.009786
-0.008615
-0.007361
-0.007026
-0.005855
-0.005521
-0.004600
-0.004015
-0.003429
-0.004015
-0.004266
-0.004935
-0.005855
-0.006441
-0.007361
-0.007026
-0.005855
-0.003429
-0.001255
0.000251
0.001757
0.002091
0.001171
-0.000669
-0.002175
-0.004015
-0.005521
-0.007695
-0.008866
-0.008281
-0.006106
-0.004015
-0.002509
-0.001589
-0.001589
-0.001255
-0.002509
-0.003095
-0.003680
-0.002760
-0.000920
0.003346
0.007612
0.012798
0.016729
0.020995
0.023170
0.024675
0.025261
0.025595
0.026850
0.028941
0.032036
0.034127
0.036302
0.037473
0.037473
0.035967
0.030447
0.023504
0.015558
0.007277
-0.000669
-0.007361
-0.013467
-0.018653
-0.022919
-0.027185
-0.030279
-0.032370
-0.033625
-0.032956
-0.030865
-0.027519
-0.023504
-0.019238
-0.016227
-0.013801
-0.013801
-0.014721
-0.017147
-0.021078
-0.025679
-0.030530
-0.034545
-0.037556
-0.040902
-0.043412
-0.046088
-0.048598
-0.046757
-0.036385
-0.012881
0.025595
0.080801
0.147967
0.222746
0.300284
0.373808
0.434868
0.472341
0.479702
0.452517
0.391791
0.302124
0.187615
0.057966
-0.072353
-0.193219
-0.293593
-0.366865
-0.408939
-0.416885
-0.394301
-0.348547
-0.287236
-0.220404
-0.156248
-0.101628
-0.059555
-0.031450
-0.015558
-0.009786
-0.011041
-0.016813
-0.024759
-0.031785
-0.037306
-0.039982
-0.039731
-0.036971
-0.032956
-0.027770
-0.022919
-0.017733
-0.014052
-0.011627
-0.009786
-0.008866
-0.008615
-0.007946
-0.007026
-0.005855
-0.003680
-0.000920
0.002091
0.004266
0.005437
0.006106
0.006692
0.006692
0.005771
0.004266
0.001757
0.001506
0.002091
0.004266
0.005771
0.009452
0.013383
0.017398
0.022584
0.028021
0.035047
0.042993
0.051274
0.060391
0.069843
0.080801
0.090922
0.099453
0.105894
0.110411
0.113757
0.117186
0.120197
0.123878
0.129984
0.136675
0.144036
0.151313
0.156499
0.157754
0.153739
0.144036
0.128144
0.107065
0.082055
0.053951
0.025930
0.001171
-0.020493
-0.038142
-0.051943
-0.060140
-0.066832
-0.071433
-0.074527
-0.076368
-0.077204
-0.078459
-0.079044
-0.078793
-0.076953
-0.074193
-0.070512
-0.066832
-0.063235
-0.059890
-0.057715
-0.056795
-0.058300
-0.060475
-0.062315
-0.063235
-0.063235
-0.063235
-0.063486
-0.062566
-0.060726
-0.057380
-0.055289
-0.053114
-0.051274
-0.050103
-0.049769
-0.050103
-0.051274
-0.053449
-0.056209
-0.059220
-0.062566
-0.065661
-0.068087
-0.069341
-0.069592
-0.066581
-0.062566
-0.058049
-0.053449
-0.048263
-0.043412
-0.038142
-0.035716
-0.033876
-0.033625
-0.032956
-0.033291
-0.034796
-0.036385
-0.036636
-0.037556
-0.037306
-0.036385
-0.034796
-0.032705
-0.030279
-0.027519
-0.024759
-0.022919
-0.021664
-0.021999
-0.022919
-0.025344
-0.028439
-0.031199
-0.032370
-0.032120
-0.031785
-0.029610
-0.026850
-0.023253
-0.018067
-0.014052
-0.011961
-0.011292
-0.011627
-0.012881
-0.014721
-0.018318
-0.021664
-0.024424
-0.026013
-0.026264
-0.026599
-0.025344
-0.023253
-0.021664
-0.019238
-0.017147
-0.013801
-0.011041
-0.007361
-0.004600
-0.001840
-0.000335
0.000000
-0.001255
-0.003429
-0.005855
-0.009201
-0.012212
-0.014721
