0.000000	0.038758
0.002000	0.068055
0.004000	0.131228
0.006000	0.115969
0.008000	0.146792
0.010000	0.130312
0.012000	0.069581
0.014000	0.035706
0.016000	0.088808
0.018000	0.093080
0.020000	0.022583
0.022000	0.031739
0.024000	0.017395
0.026000	-0.012207
0.028000	0.015869
0.030000	0.000000
0.032000	-0.035096
0.034000	0.019837
0.036000	0.045167
0.038000	0.002441
0.040000	-0.002441
0.042000	0.019226
0.044000	-0.008240
0.046000	0.008240
0.048000	-0.014343
0.050000	-0.048219
0.052000	-0.000305
0.054000	-0.005493
0.056000	-0.021363
0.058000	-0.022583
0.060000	-0.025330
0.062000	-0.001526
0.064000	-0.004883
0.066000	-0.018921
0.068000	0.000916
0.070000	0.025635
0.072000	-0.006409
0.074000	-0.024414
0.076000	-0.003052
0.078000	0.014038
0.080000	-0.003662
0.082000	0.007019
0.084000	0.007630
0.086000	-0.012818
0.088000	0.021363
0.090000	0.009766
0.092000	0.035706
0.094000	0.036927
0.096000	-0.003052
0.098000	0.021363
0.100000	0.021668
0.102000	0.003662
0.104000	-0.009766
0.106000	-0.043641
0.108000	-0.027161
0.110000	0.021668
0.112000	0.026246
0.114000	0.003357
0.116000	-0.014649
0.118000	0.004578
0.120000	0.009155
0.122000	-0.019532
0.124000	-0.010987
0.126000	-0.008850
0.128000	-0.007324
0.130000	0.035706
0.132000	-0.012818
0.134000	-0.008850
0.136000	0.072633
0.138000	0.045777
0.140000	-0.031434
0.142000	-0.017395
0.144000	0.031128
0.146000	0.036927
0.148000	0.000000
0.150000	-0.001831
0.152000	0.048829
0.154000	0.068055
0.156000	0.023499
0.158000	0.020752
0.160000	0.057069
0.162000	0.046693
0.164000	0.030213
0.166000	0.068971
0.168000	0.119326
0.170000	0.138552
0.172000	0.091554
0.174000	0.099184
0.176000	0.092470
0.178000	0.151675
0.180000	0.135195
0.182000	0.112306
0.184000	0.115663
0.186000	0.095827
0.188000	0.055238
0.190000	0.063172
0.192000	0.060121
0.194000	0.038453
0.196000	0.019532
0.198000	-0.027466
0.200000	-0.059205
0.202000	-0.024414
0.204000	0.005188
0.206000	-0.009155
0.208000	-0.019226
0.210000	-0.046387
0.212000	-0.014038
0.214000	-0.030213
0.216000	-0.038148
0.218000	0.000305
0.220000	-0.007935
0.222000	-0.047913
0.224000	-0.051881
0.226000	-0.031128
0.228000	-0.014649
0.230000	-0.027771
0.232000	-0.050050
0.234000	-0.061036
0.236000	-0.038453
0.238000	-0.036622
0.240000	-0.043641
0.242000	-0.025025
0.244000	-0.010376
0.246000	-0.021973
0.248000	-0.060121
0.250000	-0.116579
0.252000	-0.077211
0.254000	0.050965
0.256000	0.162051
0.258000	0.327153
0.260000	0.508125
0.262000	0.697337
0.264000	0.896010
0.266000	1.055924
0.268000	1.000076
0.270000	0.618296
0.272000	0.199283
0.274000	-0.102541
0.276000	-0.202640
0.278000	-0.193179
0.280000	-0.186160
0.282000	-0.120546
0.284000	-0.065309
0.286000	-0.014343
0.288000	0.000000
0.290000	-0.015869
0.292000	-0.028077
0.294000	-0.041505
0.296000	-0.054932
0.298000	-0.083925
0.300000	-0.039979
0.302000	-0.006104
0.304000	-0.064088
0.306000	-0.032349
0.308000	0.002747
0.310000	-0.031739
0.312000	-0.029603
0.314000	-0.014343
0.316000	-0.032654
0.318000	-0.032044
0.320000	-0.041505
0.322000	-0.017700
0.324000	-0.033875
0.326000	-0.010071
0.328000	-0.015869
0.330000	-0.028077
0.332000	-0.011597
0.334000	-0.010376
0.336000	-0.022278
0.338000	-0.031128
0.340000	-0.019837
0.342000	-0.004883
0.344000	-0.008850
0.346000	-0.034485
0.348000	-0.051575
0.350000	-0.025025
0.352000	-0.021668
0.354000	-0.004883
0.356000	-0.013428
0.358000	-0.028687
0.360000	-0.001221
0.362000	-0.017090
0.364000	-0.058595
0.366000	-0.070192
0.368000	-0.050965
0.370000	-0.033570
0.372000	-0.021668
0.374000	-0.034485
0.376000	-0.014954
0.378000	-0.010376
0.380000	0.005798
0.382000	-0.014038
0.384000	-0.046082
0.386000	-0.023194
0.388000	0.046082
0.390000	0.030518
0.392000	-0.004273
0.394000	0.035096
0.396000	0.065309
0.398000	0.025635
0.400000	0.021668
0.402000	0.040894
0.404000	0.032349
0.406000	0.042725
0.408000	0.069886
0.410000	0.096132
0.412000	0.097047
0.414000	0.086976
0.416000	0.066835
0.418000	0.064088
0.420000	0.059510
0.422000	0.052796
0.424000	0.029603
0.426000	0.043030
0.428000	0.016480
0.430000	-0.014038
0.432000	0.011902
0.434000	0.021668
0.436000	-0.001221
0.438000	0.027466
0.440000	-0.020752
0.442000	-0.032959
0.444000	0.026246
0.446000	-0.000610
0.448000	-0.034180
0.450000	-0.040894
0.452000	-0.030518
0.454000	-0.051270
0.456000	-0.090333
0.458000	-0.047303
0.460000	0.009155
0.462000	0.007630
0.464000	-0.020447
0.466000	-0.037537
0.468000	-0.046998
0.470000	-0.017700
0.472000	0.017395
0.474000	-0.008850
0.476000	-0.043336
0.478000	-0.003357
0.480000	0.015564
0.482000	-0.018311
0.484000	-0.032959
0.486000	0.000000
0.488000	0.000610
0.490000	-0.028382
0.492000	-0.004883
0.494000	-0.000610
0.496000	-0.004883
0.498000	-0.028382
0.500000	-0.054932
0.502000	-0.034485
0.504000	-0.007630
0.506000	-0.010071
0.508000	-0.028382
0.510000	-0.031128
0.512000	-0.019837
0.514000	0.006409
0.516000	0.050965
0.518000	0.005798
0.520000	-0.010987
0.522000	0.002136
0.524000	-0.026856
0.526000	-0.006714
0.528000	0.049134
0.530000	0.020142
0.532000	-0.010071
0.534000	0.007324
0.536000	0.049134
0.538000	0.037232
0.540000	0.037232
0.542000	0.101320
0.544000	0.140078
0.546000	0.112306
0.548000	0.101625
0.550000	0.092164
0.552000	0.087282
0.554000	0.090333
0.556000	0.075990
0.558000	0.058595
0.560000	0.073243
0.562000	0.058595
0.564000	0.073243
0.566000	0.043336
0.568000	-0.005188
0.570000	-0.030823
0.572000	-0.032349
0.574000	-0.045472
0.576000	-0.015259
0.578000	-0.015869
0.580000	-0.036622
0.582000	-0.053101
0.584000	-0.043336
0.586000	-0.021363
0.588000	-0.025330
0.590000	-0.043946
0.592000	-0.037232
0.594000	-0.017395
0.596000	-0.038758
0.598000	-0.064698
0.600000	-0.040284
0.602000	-0.041810
0.604000	-0.033265
0.606000	-0.053712
0.608000	-0.069581
0.610000	-0.099489
0.612000	-0.071412
0.614000	-0.034485
0.616000	-0.051881
0.618000	-0.024414
0.620000	-0.057069
0.622000	-0.127565
0.624000	-0.140078
0.626000	-0.024109
0.628000	0.137026
0.630000	0.342412
0.632000	0.514229
0.634000	0.679026
0.636000	0.887160
0.638000	1.066911
0.640000	0.972000
0.642000	0.517281
0.644000	0.080262
0.646000	-0.141909
0.648000	-0.215152
0.650000	-0.218509
0.652000	-0.143435
0.654000	-0.056153
0.656000	-0.039979
0.658000	-0.105287
0.660000	-0.050050
0.662000	-0.014954
0.664000	-0.065309
0.666000	-0.016480
0.668000	-0.026856
0.670000	-0.057069
0.672000	-0.043946
0.674000	-0.059510
0.676000	-0.069276
0.678000	-0.054627
0.680000	-0.044251
0.682000	-0.060426
0.684000	-0.042725
0.686000	-0.021363
0.688000	-0.021973
0.690000	-0.029603
0.692000	-0.032654
0.694000	-0.012512
0.696000	-0.024414
0.698000	-0.013428
0.700000	-0.048524
0.702000	-0.012818
0.704000	0.017700
0.706000	-0.004273
0.708000	-0.035706
0.710000	-0.025025
0.712000	0.024109
0.714000	-0.014649
0.716000	-0.049744
0.718000	-0.052186
0.720000	-0.060731
0.722000	-0.059815
0.724000	-0.077821
0.726000	-0.054932
0.728000	-0.029297
0.730000	-0.040284
0.732000	-0.048219
0.734000	-0.053712
0.736000	-0.020142
0.738000	-0.016785
0.740000	-0.017700
0.742000	-0.014649
0.744000	-0.021668
0.746000	-0.017700
0.748000	-0.000610
0.750000	0.010376
0.752000	-0.013733
0.754000	-0.020752
0.756000	-0.014038
0.758000	-0.025025
0.760000	-0.012818
0.762000	0.017090
0.764000	0.006409
0.766000	-0.022278
0.768000	-0.003357
0.770000	0.031128
0.772000	0.034485
0.774000	0.055543
0.776000	0.098573
0.778000	0.112917
0.780000	0.119326
0.782000	0.113832
0.784000	0.090944
0.786000	0.066224
0.788000	0.018616
0.790000	0.000000
0.792000	0.032349
0.794000	0.008240
0.796000	-0.005798
0.798000	-0.002747
0.800000	0.000000
0.802000	0.012512
0.804000	-0.023804
0.806000	-0.038453
0.808000	-0.025635
0.810000	-0.008545
0.812000	0.033875
0.814000	0.006409
0.816000	-0.019226
0.818000	-0.000916
0.820000	-0.013733
0.822000	-0.020752
0.824000	-0.039368
0.826000	-0.054017
0.828000	-0.033570
0.830000	-0.011902
0.832000	-0.010376
0.834000	-0.021057
0.836000	-0.053101
0.838000	-0.056764
0.840000	-0.018311
0.842000	0.007019
0.844000	0.011597
0.846000	0.015564
0.848000	-0.014038
0.850000	-0.015869
0.852000	-0.032654
0.854000	-0.032044
0.856000	-0.041505
0.858000	-0.079347
0.860000	0.003662
0.862000	0.050965
0.864000	0.007324
0.866000	-0.042725
0.868000	-0.030213
0.870000	-0.044556
0.872000	-0.018921
0.874000	-0.040589
0.876000	-0.046693
0.878000	-0.007630
0.880000	-0.009461
0.882000	-0.016480
0.884000	-0.008545
0.886000	0.000610
0.888000	-0.026246
0.890000	-0.057069
0.892000	0.000000
0.894000	0.030518
0.896000	0.019532
0.898000	0.025025
0.900000	0.047913
0.902000	0.073854
0.904000	0.100099
0.906000	0.093385
0.908000	0.085145
0.910000	0.083619
0.912000	0.125734
0.914000	0.093690
0.916000	0.068360
0.918000	0.093690
0.920000	0.075380
0.922000	0.056458
0.924000	0.020752
0.926000	-0.018006
0.928000	0.029908
0.930000	0.045777
0.932000	0.008850
0.934000	-0.056764
0.936000	-0.058289
0.938000	-0.061646
0.940000	-0.070497
0.942000	-0.056153
0.944000	-0.034180
0.946000	-0.042420
0.948000	-0.048524
0.950000	-0.013123
0.952000	-0.003662
0.954000	-0.044862
0.956000	-0.050050
0.958000	-0.090944
0.960000	-0.104067
0.962000	-0.057069
0.964000	-0.025330
0.966000	-0.085145
0.968000	-0.069581
0.970000	-0.021363
0.972000	-0.033265
0.974000	-0.054627
0.976000	-0.053407
0.978000	-0.052491
0.980000	-0.097963
0.982000	-0.146181
0.984000	-0.137636
0.986000	-0.043030
0.988000	0.154726
0.990000	0.366522
0.992000	0.491341
0.994000	0.669871
0.996000	0.912795
0.998000	1.067521
1.000000	0.880751
1.002000	0.405585
1.004000	0.045167
1.006000	-0.176089
1.008000	-0.199588
1.010000	-0.167544
1.012000	-0.141909
1.014000	-0.081483
1.016000	-0.069886
1.018000	-0.062867
1.020000	-0.052491
1.022000	-0.055848
1.024000	-0.048829
1.026000	-0.047608
1.028000	-0.052186
1.030000	-0.058289
1.032000	-0.050660
1.034000	-0.008240
1.036000	0.008240
1.038000	-0.047303
1.040000	-0.103456
1.042000	-0.060731
1.044000	-0.049744
1.046000	-0.043946
1.048000	-0.049744
1.050000	-0.078431
1.052000	-0.068971
1.054000	-0.023194
1.056000	-0.016480
1.058000	-0.041810
1.060000	-0.034485
1.062000	0.000305
1.064000	-0.028992
1.066000	-0.060426
1.068000	-0.033265
1.070000	-0.012818
1.072000	-0.013123
1.074000	-0.012818
1.076000	-0.015869
1.078000	-0.002441
1.080000	-0.000610
1.082000	-0.021057
1.084000	0.003967
1.086000	-0.041505
1.088000	-0.010071
1.090000	-0.025330
1.092000	-0.079042
1.094000	-0.047913
1.096000	-0.025635
1.098000	-0.073243
1.100000	-0.032349
1.102000	-0.008545
1.104000	-0.036622
1.106000	-0.042420
1.108000	-0.035401
1.110000	-0.018006
1.112000	0.001526
1.114000	-0.000610
1.116000	0.012512
1.118000	-0.015259
1.120000	-0.002441
1.122000	0.026551
1.124000	0.033265
1.126000	0.019226
1.128000	0.043336
1.130000	-0.003052
1.132000	0.046082
1.134000	0.073243
1.136000	0.096742
1.138000	0.061646
1.140000	0.069886
1.142000	0.085145
1.144000	0.089723
1.146000	0.048219
1.148000	0.031434
1.150000	0.040589
1.152000	0.067445
1.154000	0.039979
1.156000	-0.002441
1.158000	-0.043946
1.160000	-0.032654
1.162000	0.042420
1.164000	0.001526
1.166000	-0.039368
1.168000	-0.052796
1.170000	-0.033875
1.172000	0.003967
1.174000	0.017700
1.176000	-0.005493
1.178000	-0.012512
1.180000	-0.002441
1.182000	0.006104
1.184000	-0.007324
1.186000	-0.026551
1.188000	-0.017090
1.190000	-0.040284
1.192000	-0.026856
1.194000	-0.007630
1.196000	0.015869
1.198000	-0.013428
1.200000	-0.033570
1.202000	-0.017395
1.204000	0.008545
1.206000	-0.000916
1.208000	-0.055543
1.210000	-0.049744
1.212000	-0.001831
1.214000	0.049439
1.216000	0.016175
1.218000	-0.020142
1.220000	-0.014038
1.222000	0.026551
1.224000	-0.023499
1.226000	-0.003357
1.228000	0.010987
1.230000	-0.008545
1.232000	-0.057374
1.234000	-0.050660
1.236000	-0.005493
1.238000	-0.032349
1.240000	-0.024109
1.242000	0.002136
1.244000	-0.002747
1.246000	0.020752
1.248000	0.018921
1.250000	0.002136
1.252000	0.051575
1.254000	0.065919
1.256000	0.029603
1.258000	0.023499
1.260000	0.034485
1.262000	0.019532
1.264000	0.068360
1.266000	0.115969
1.268000	0.109255
1.270000	0.105592
1.272000	0.079957
1.274000	0.109865
1.276000	0.125429
1.278000	0.099794
1.280000	0.095216
1.282000	0.115358
1.284000	0.086671
1.286000	0.065309
1.288000	0.043336
1.290000	0.015564
1.292000	-0.006714
1.294000	0.008240
1.296000	0.056458
1.298000	0.005493
1.300000	-0.070802
1.302000	-0.063172
1.304000	-0.057984
1.306000	-0.015259
1.308000	-0.025330
1.310000	-0.021973
1.312000	-0.032349
1.314000	-0.078126
1.316000	-0.037537
1.318000	-0.025940
1.320000	-0.046082
1.322000	-0.028077
1.324000	-0.019837
1.326000	-0.023499
1.328000	-0.025940
1.330000	-0.060121
1.332000	-0.070192
1.334000	-0.005188
1.336000	0.006714
1.338000	-0.017700
1.340000	-0.042725
1.342000	-0.013123
1.344000	-0.040894
1.346000	-0.067140
1.348000	-0.089113
1.350000	0.008850
1.352000	0.163882
1.354000	0.326543
1.356000	0.465400
1.358000	0.650340
1.360000	0.925307
1.362000	1.086442
1.364000	0.880446
1.366000	0.435187
1.368000	0.076295
1.370000	-0.120851
1.372000	-0.174258
1.374000	-0.173342
1.376000	-0.150149
1.378000	-0.084840
1.380000	-0.075685
1.382000	-0.012512
1.384000	-0.026246
1.386000	-0.038453
1.388000	-0.046693
1.390000	-0.034180
1.392000	-0.010987
1.394000	-0.015869
1.396000	-0.029908
1.398000	-0.019837
1.400000	-0.060731
1.402000	-0.027161
1.404000	-0.044556
1.406000	-0.043336
1.408000	-0.021973
1.410000	-0.022583
1.412000	0.014038
1.414000	0.010987
1.416000	-0.017090
1.418000	-0.007019
1.420000	0.025330
1.422000	0.028077
1.424000	-0.016785
1.426000	-0.054627
1.428000	-0.043336
1.430000	-0.018921
1.432000	-0.034180
1.434000	-0.012818
1.436000	0.013123
1.438000	0.002136
1.440000	-0.031128
1.442000	-0.052491
1.444000	-0.039368
1.446000	-0.040284
1.448000	-0.010987
1.450000	-0.031739
1.452000	-0.040589
1.454000	-0.021973
1.456000	-0.025635
1.458000	-0.042725
1.460000	0.001526
1.462000	-0.035401
1.464000	-0.030518
1.466000	-0.021668
1.468000	-0.007019
1.470000	-0.022583
1.472000	-0.029297
1.474000	-0.002136
1.476000	-0.010376
1.478000	-0.009461
1.480000	0.039979
1.482000	0.045472
1.484000	0.050965
1.486000	0.070497
1.488000	0.027771
1.490000	0.004578
1.492000	0.057984
1.494000	0.073854
1.496000	0.064088
1.498000	0.057984
1.500000	0.082094
1.502000	0.061646
1.504000	0.068055
1.506000	0.110170
1.508000	0.093080
1.510000	0.093385
1.512000	0.066529
1.514000	0.022583
1.516000	-0.036011
1.518000	0.016785
1.520000	0.070192
1.522000	0.045167
1.524000	-0.058289
1.526000	-0.050660
1.528000	0.035706
1.530000	0.037537
1.532000	-0.020752
1.534000	-0.021363
1.536000	0.025940
1.538000	0.054932
1.540000	0.000000
1.542000	-0.030823
1.544000	-0.017395
1.546000	-0.017700
1.548000	-0.023499
1.550000	-0.017090
1.552000	0.026856
1.554000	0.011292
1.556000	-0.035706
1.558000	-0.048219
1.560000	-0.045167
1.562000	0.027771
1.564000	0.039063
1.566000	-0.004273
1.568000	-0.004883
1.570000	-0.052796
1.572000	0.000000
1.574000	0.036011
1.576000	-0.011292
1.578000	0.003357
1.580000	0.006104
1.582000	-0.041505
1.584000	-0.051270
1.586000	-0.035096
1.588000	-0.012512
1.590000	-0.009766
1.592000	-0.012818
1.594000	-0.017700
1.596000	0.030518
1.598000	0.009155
1.600000	0.015869
1.602000	0.009461
1.604000	-0.051270
1.606000	-0.015564
1.608000	-0.012207
1.610000	-0.024720
1.612000	0.052796
1.614000	0.027161
1.616000	0.006409
1.618000	-0.004578
1.620000	0.015259
1.622000	0.064698
1.624000	-0.018311
1.626000	-0.047303
1.628000	0.041810
1.630000	0.055848
1.632000	0.056764
1.634000	0.106508
1.636000	0.135195
1.638000	0.116274
1.640000	0.088808
1.642000	0.090333
1.644000	0.090639
1.646000	0.092164
1.648000	0.061341
1.650000	0.016175
1.652000	0.029297
1.654000	0.084535
1.656000	0.071412
1.658000	0.029603
1.660000	0.042115
1.662000	0.000305
1.664000	-0.000305
1.666000	-0.011597
1.668000	-0.003052
1.670000	-0.025025
1.672000	-0.053712
1.674000	-0.055238
1.676000	-0.057679
1.678000	-0.064393
1.680000	-0.034485
1.682000	0.011597
1.684000	0.010071
1.686000	-0.023499
1.688000	-0.065309
1.690000	-0.074159
1.692000	-0.055238
1.694000	-0.047913
1.696000	-0.011292
1.698000	-0.016175
1.700000	-0.040589
1.702000	-0.059510
1.704000	-0.086061
1.706000	-0.081483
1.708000	-0.015869
1.710000	-0.025025
1.712000	-0.066835
1.714000	-0.076295
1.716000	-0.148318
1.718000	-0.116579
1.720000	0.035096
1.722000	0.281987
1.724000	0.440375
1.726000	0.556954
1.728000	0.767834
1.730000	1.035782
1.732000	1.011978
1.734000	0.595407
1.736000	0.225528
1.738000	-0.137942
1.740000	-0.282292
1.742000	-0.238041
1.744000	-0.197452
1.746000	-0.093385
1.748000	-0.096742
1.750000	-0.082704
1.752000	-0.022889
1.754000	-0.034485
1.756000	-0.054627
1.758000	-0.039368
1.760000	-0.047303
1.762000	-0.072023
1.764000	-0.057069
1.766000	-0.039673
1.768000	-0.080262
1.770000	-0.058289
1.772000	-0.051881
1.774000	-0.058289
1.776000	-0.107729
1.778000	-0.124514
1.780000	-0.049744
1.782000	-0.029603
1.784000	-0.043030
1.786000	-0.055848
1.788000	-0.045777
1.790000	-0.055848
1.792000	-0.069886
1.794000	-0.042115
1.796000	-0.076905
1.798000	-0.067750
1.800000	-0.011597
1.802000	-0.010681
1.804000	-0.013123
1.806000	-0.047303
1.808000	-0.061952
1.810000	-0.074464
1.812000	-0.034791
1.814000	-0.068055
1.816000	-0.035401
1.818000	0.016175
1.820000	-0.044862
1.822000	-0.026856
1.824000	-0.038453
1.826000	-0.019837
1.828000	0.008850
1.830000	-0.047608
1.832000	-0.085756
1.834000	-0.012512
1.836000	0.000305
1.838000	-0.051575
1.840000	-0.048524
1.842000	-0.057374
1.844000	-0.040284
1.846000	-0.005798
1.848000	-0.009461
1.850000	-0.009155
1.852000	0.000916
1.854000	0.003052
1.856000	0.008240
1.858000	-0.045472
1.860000	-0.032959
1.862000	-0.010987
1.864000	0.075990
1.866000	0.058900
1.868000	0.051270
1.870000	0.071107
1.872000	0.061952
1.874000	0.100404
1.876000	0.110475
1.878000	0.061646
1.880000	-0.012818
1.882000	-0.011292
1.884000	-0.033875
1.886000	-0.003662
1.888000	0.030213
1.890000	-0.026551
1.892000	0.012818
1.894000	-0.019532
1.896000	-0.057374
1.898000	-0.066224
1.900000	-0.082399
1.902000	-0.082094
1.904000	-0.039673
1.906000	-0.031739
1.908000	-0.054932
1.910000	-0.030823
1.912000	0.020752
1.914000	-0.040894
1.916000	-0.020447
1.918000	0.043641
1.920000	0.023194
1.922000	-0.088808
1.924000	-0.152895
1.926000	-0.045167
1.928000	0.011292
1.930000	-0.051270
1.932000	-0.086061
1.934000	-0.115663
1.936000	-0.022889
1.938000	0.003967
1.940000	-0.054932
1.942000	-0.043946
1.944000	-0.002441
1.946000	-0.041199
1.948000	-0.041505
1.950000	-0.019837
1.952000	-0.015564
1.954000	-0.016785
1.956000	-0.047608
1.958000	-0.083314
1.960000	-0.040284
1.962000	-0.063478
1.964000	-0.083009
1.966000	-0.087892
1.968000	-0.105287
1.970000	-0.119326
1.972000	-0.020752
1.974000	-0.004883
1.976000	0.013123
1.978000	-0.011597
1.980000	-0.075685
1.982000	-0.068360
1.984000	0.029297
1.986000	0.031128
1.988000	0.031434
1.990000	0.044556
1.992000	0.020142
1.994000	0.069276
1.996000	0.107729
1.998000	0.085145
2.000000	0.027161
2.002000	0.069581
2.004000	0.113527
2.006000	0.109255
2.008000	0.065003
2.010000	0.023499
2.012000	0.015869
2.014000	0.107118
2.016000	0.034180
2.018000	-0.022889
2.020000	-0.013123
2.022000	-0.047608
2.024000	-0.041810
2.026000	0.014038
2.028000	-0.049134
2.030000	-0.043336
2.032000	-0.036927
2.034000	-0.033265
2.036000	-0.090333
2.038000	-0.086671
2.040000	-0.053101
2.042000	-0.053101
2.044000	-0.088197
2.046000	-0.056764
2.048000	-0.017090
2.050000	-0.072633
2.052000	-0.042725
2.054000	-0.108034
2.056000	-0.198978
2.058000	-0.067750
2.060000	0.014343
2.062000	-0.031739
2.064000	-0.133669
2.066000	-0.053407
2.068000	-0.031434
2.070000	-0.040284
2.072000	-0.155947
2.074000	-0.178225
2.076000	-0.123903
2.078000	-0.082094
2.080000	0.101625
2.082000	0.310063
2.084000	0.398260
2.086000	0.632639
2.088000	0.848402
2.090000	1.010758
2.092000	0.860609
2.094000	0.402533
2.096000	0.063172
2.098000	-0.167239
2.100000	-0.201114
2.102000	-0.134279
2.104000	-0.128176
2.106000	-0.144045
2.108000	-0.116884
2.110000	-0.069886
2.112000	-0.034791
2.114000	-0.056764
2.116000	-0.084535
2.118000	-0.074464
2.120000	-0.081483
2.122000	-0.068971
2.124000	-0.100710
2.126000	-0.093690
2.128000	-0.021668
2.130000	-0.066529
2.132000	-0.086671
2.134000	-0.050965
2.136000	-0.008850
2.138000	-0.029908
2.140000	-0.120241
2.142000	-0.093996
2.144000	-0.047303
2.146000	-0.015259
2.148000	-0.060121
2.150000	-0.069886
2.152000	-0.017395
2.154000	0.018006
2.156000	-0.021668
2.158000	-0.063172
2.160000	-0.061952
2.162000	-0.028382
2.164000	-0.066835
2.166000	-0.034180
2.168000	-0.058900
2.170000	-0.041810
2.172000	-0.040284
2.174000	-0.023194
2.176000	-0.050355
2.178000	-0.045777
2.180000	-0.024109
2.182000	-0.035401
2.184000	-0.034485
2.186000	-0.034180
2.188000	-0.075685
2.190000	-0.065919
2.192000	-0.072633
2.194000	-0.050050
2.196000	-0.018311
2.198000	-0.034485
2.200000	-0.026246
2.202000	-0.023194
2.204000	-0.034791
2.206000	0.006714
2.208000	0.039979
2.210000	0.003967
2.212000	-0.005798
2.214000	-0.000610
2.216000	0.017700
2.218000	0.028077
2.220000	0.014343
2.222000	0.038453
2.224000	0.116274
2.226000	0.057069
2.228000	0.061036
2.230000	0.085756
2.232000	0.086061
2.234000	0.068666
2.236000	0.018616
2.238000	-0.023194
2.240000	0.037537
2.242000	0.022583
2.244000	0.023499
2.246000	0.023804
2.248000	0.008240
2.250000	-0.030518
2.252000	-0.096437
2.254000	-0.046082
2.256000	-0.040284
2.258000	-0.049134
2.260000	-0.000610
2.262000	-0.035401
2.264000	0.001221
2.266000	0.002747
2.268000	-0.038148
2.270000	-0.051881
2.272000	-0.013428
2.274000	-0.027161
2.276000	-0.029908
2.278000	-0.057374
2.280000	-0.007935
2.282000	0.026856
2.284000	-0.020752
2.286000	-0.103456
2.288000	-0.053712
2.290000	-0.002441
2.292000	-0.021363
2.294000	-0.032044
2.296000	-0.025635
2.298000	-0.034180
2.300000	-0.042420
2.302000	-0.106203
2.304000	-0.015869
2.306000	-0.019226
2.308000	-0.041810
2.310000	-0.024720
2.312000	-0.005493
2.314000	-0.062867
2.316000	-0.067140
2.318000	0.009155
2.320000	0.003662
2.322000	-0.036011
2.324000	-0.073854
2.326000	-0.033570
2.328000	-0.022583
2.330000	-0.058289
2.332000	-0.058900
2.334000	-0.008545
2.336000	-0.010681
2.338000	-0.006104
2.340000	-0.052186
2.342000	-0.025330
2.344000	0.018616
2.346000	0.019532
2.348000	-0.026551
2.350000	0.010376
2.352000	0.089418
2.354000	0.080262
2.356000	0.083009
2.358000	0.123903
2.360000	0.083314
2.362000	0.080873
2.364000	0.084840
2.366000	0.121767
2.368000	0.101015
2.370000	0.020752
2.372000	0.008240
2.374000	0.056764
2.376000	-0.017700
2.378000	0.001831
2.380000	-0.003052
2.382000	-0.032044
2.384000	-0.071412
2.386000	-0.035706
2.388000	-0.065309
2.390000	-0.100099
2.392000	-0.075685
2.394000	-0.001221
2.396000	-0.023499
2.398000	-0.097658
2.400000	-0.080262
2.402000	-0.054932
2.404000	-0.153506
2.406000	-0.056153
2.408000	-0.052796
2.410000	-0.036927
2.412000	-0.049439
2.414000	-0.096437
2.416000	-0.073548
2.418000	-0.056458
2.420000	-0.048829
2.422000	-0.133059
2.424000	-0.112001
2.426000	-0.068360
2.428000	-0.047913
2.430000	-0.065003
2.432000	-0.078737
2.434000	-0.102846
2.436000	-0.173953
2.438000	-0.118715
2.440000	0.066835
2.442000	0.234379
2.444000	0.435492
2.446000	0.598459
2.448000	0.742809
2.450000	0.993973
2.452000	0.934768
2.454000	0.467231
2.456000	0.069886
2.458000	-0.189822
2.460000	-0.246586
2.462000	-0.208743
2.464000	-0.139467
2.466000	-0.103151
2.468000	-0.058289
2.470000	-0.026856
2.472000	-0.036927
2.474000	-0.112001
2.476000	-0.086366
2.478000	-0.018006
2.480000	-0.054017
2.482000	-0.055543
2.484000	-0.097963
2.486000	-0.104372
2.488000	-0.085451
2.490000	-0.097047
2.492000	-0.057069
2.494000	-0.074159
2.496000	-0.138552
2.498000	-0.081788
2.500000	-0.039368
2.502000	-0.064088
2.504000	-0.058595
2.506000	-0.047303
2.508000	-0.078126
2.510000	-0.055543
2.512000	-0.032044
2.514000	-0.088502
2.516000	-0.063783
2.518000	-0.065309
2.520000	0.005493
2.522000	-0.041505
2.524000	-0.092164
2.526000	-0.045167
2.528000	-0.081483
2.530000	-0.127260
2.532000	-0.052186
2.534000	-0.023804
2.536000	-0.045777
2.538000	-0.046693
2.540000	-0.024414
2.542000	-0.028687
2.544000	-0.053101
2.546000	-0.055543
2.548000	-0.074159
2.550000	-0.079652
2.552000	-0.025940
2.554000	-0.055238
2.556000	-0.055543
2.558000	-0.019226
2.560000	-0.042115
2.562000	-0.049134
2.564000	-0.057374
2.566000	-0.073243
2.568000	-0.038758
2.570000	-0.017395
2.572000	0.013428
2.574000	-0.026551
2.576000	-0.000610
2.578000	0.041199
2.580000	0.075685
2.582000	0.056764
2.584000	0.055848
2.586000	0.059815
2.588000	0.054627
2.590000	0.067140
2.592000	0.070497
2.594000	0.058900
2.596000	0.063478
2.598000	0.030518
2.600000	-0.014649
2.602000	-0.024109
2.604000	-0.007324
2.606000	-0.013428
2.608000	-0.011597
2.610000	-0.042420
2.612000	-0.036316
2.614000	-0.028992
2.616000	-0.017090
2.618000	-0.036011
2.620000	-0.102846
2.622000	-0.094606
2.624000	-0.052491
2.626000	-0.103151
2.628000	-0.038148
2.630000	0.004578
2.632000	-0.068360
2.634000	-0.013123
2.636000	-0.043336
2.638000	-0.041810
2.640000	-0.011597
2.642000	-0.014649
2.644000	-0.046082
2.646000	-0.056764
2.648000	-0.054627
2.650000	-0.050050
2.652000	-0.066224
2.654000	-0.042420
2.656000	-0.052186
2.658000	-0.082399
2.660000	-0.005493
2.662000	-0.018311
2.664000	-0.023499
2.666000	-0.042725
2.668000	-0.052186
2.670000	-0.073854
2.672000	-0.023194
2.674000	-0.057069
2.676000	-0.034180
2.678000	-0.010376
2.680000	-0.043946
2.682000	-0.099794
2.684000	-0.029908
2.686000	-0.000305
2.688000	-0.026246
2.690000	-0.076295
2.692000	-0.091249
2.694000	-0.065614
2.696000	0.012512
2.698000	-0.002441
2.700000	-0.005798
2.702000	-0.035401
2.704000	-0.061341
2.706000	-0.079652
2.708000	-0.075990
2.710000	-0.017090
2.712000	0.000610
2.714000	-0.003662
2.716000	-0.026246
2.718000	-0.032654
2.720000	-0.016175
2.722000	-0.009155
2.724000	-0.019226
2.726000	0.001831
2.728000	0.104982
2.730000	0.109865
2.732000	0.111696
2.734000	0.101015
2.736000	0.090944
2.738000	0.035096
2.740000	0.017700
2.742000	0.091249
2.744000	0.053407
2.746000	0.036316
2.748000	0.003662
2.750000	-0.024414
2.752000	0.032959
2.754000	0.033875
2.756000	0.000305
2.758000	-0.057069
2.760000	-0.052796
2.762000	-0.053407
2.764000	-0.054017
2.766000	-0.050355
2.768000	-0.043336
2.770000	-0.036316
2.772000	-0.000305
2.774000	-0.076600
2.776000	-0.074159
2.778000	-0.044556
2.780000	-0.003052
2.782000	-0.086366
2.784000	-0.070192
2.786000	-0.039368
2.788000	-0.113832
2.790000	-0.062867
2.792000	-0.026551
2.794000	-0.055543
2.796000	-0.096742
2.798000	-0.085145
2.800000	-0.100099
2.802000	-0.049439
2.804000	-0.039368
2.806000	-0.055238
2.808000	-0.080568
2.810000	-0.091554
2.812000	-0.092775
2.814000	-0.120546
2.816000	-0.150759
2.818000	-0.186160
2.820000	-0.109255
2.822000	-0.093996
2.824000	0.081178
2.826000	0.271611
2.828000	0.466621
2.830000	0.676890
2.832000	0.933547
2.834000	1.053178
2.836000	0.887770
2.838000	0.450446
2.840000	0.054627
2.842000	-0.146792
2.844000	-0.138247
2.846000	-0.137331
2.848000	-0.138247
2.850000	-0.107424
2.852000	-0.063478
2.854000	-0.042725
2.856000	-0.036927
2.858000	-0.079957
2.860000	-0.096132
2.862000	-0.117494
2.864000	-0.095521
2.866000	-0.080262
2.868000	-0.073548
2.870000	-0.014343
2.872000	-0.049134
2.874000	-0.072023
2.876000	-0.039063
2.878000	-0.048524
2.880000	-0.071717
2.882000	-0.063172
2.884000	-0.025025
2.886000	-0.000305
2.888000	-0.054322
2.890000	-0.067140
2.892000	-0.061952
2.894000	-0.036316
2.896000	-0.044556
2.898000	-0.045167
2.900000	-0.082094
2.902000	-0.060121
2.904000	-0.091554
2.906000	-0.060121
2.908000	0.005798
2.910000	-0.001526
2.912000	-0.039063
2.914000	-0.048219
2.916000	-0.056458
2.918000	-0.057069
2.920000	-0.021668
2.922000	-0.034485
2.924000	-0.026551
2.926000	-0.030823
2.928000	0.000000
2.930000	0.000000
2.932000	-0.075074
2.934000	-0.046998
2.936000	0.005188
2.938000	-0.047303
2.940000	-0.035096
2.942000	-0.017700
2.944000	-0.043336
2.946000	-0.025940
2.948000	-0.024109
2.950000	-0.015259
2.952000	-0.001831
2.954000	-0.005493
2.956000	-0.016785
2.958000	0.001526
2.960000	0.049134
2.962000	0.022278
2.964000	-0.019532
2.966000	-0.005188
2.968000	0.042420
2.970000	0.063783
2.972000	0.014038
2.974000	0.022889
2.976000	0.098573
2.978000	0.096742
2.980000	0.085756
2.982000	-0.017395
2.984000	-0.032959
2.986000	0.059510
2.988000	0.055848
2.990000	0.019837
2.992000	-0.042420
2.994000	0.005798
2.996000	0.041199
2.998000	-0.046998
3.000000	-0.040589
3.002000	-0.004883
3.004000	-0.003967
3.006000	-0.032044
3.008000	-0.025635
3.010000	-0.044556
3.012000	-0.035706
3.014000	-0.021973
3.016000	-0.008240
3.018000	-0.044862
3.020000	-0.029603
3.022000	-0.032044
3.024000	-0.086976
3.026000	0.008240
3.028000	-0.006104
3.030000	-0.045167
3.032000	-0.038148
3.034000	-0.033570
3.036000	-0.012512
3.038000	0.018311
3.040000	-0.065309
3.042000	-0.054322
3.044000	-0.028992
3.046000	-0.055848
3.048000	-0.033265
3.050000	-0.041199
3.052000	-0.046998
3.054000	-0.020142
3.056000	-0.041505
3.058000	-0.076600
3.060000	-0.070497
3.062000	-0.006409
3.064000	-0.006104
3.066000	-0.021668
3.068000	-0.048219
3.070000	-0.039979
3.072000	0.043336
3.074000	0.022583
3.076000	-0.010376
3.078000	-0.014343
3.080000	-0.007324
3.082000	-0.006714
3.084000	-0.018006
3.086000	0.014038
3.088000	-0.001831
3.090000	-0.038758
3.092000	-0.050050
3.094000	-0.029603
3.096000	-0.012818
3.098000	-0.035096
3.100000	-0.046998
3.102000	-0.024720
3.104000	-0.025635
3.106000	-0.046082
3.108000	-0.021668
3.110000	-0.018006
3.112000	-0.017700
3.114000	0.029908
3.116000	0.025635
3.118000	0.025330
3.120000	0.007630
3.122000	-0.022278
3.124000	-0.043030
3.126000	-0.031434
3.128000	-0.061036
3.130000	-0.084840
3.132000	-0.029908
3.134000	0.001831
3.136000	-0.012512
3.138000	-0.002441
3.140000	-0.003967
3.142000	-0.008545
3.144000	0.037842
3.146000	0.031128
3.148000	-0.033570
3.150000	-0.036316
3.152000	0.014649
3.154000	0.024414
3.156000	-0.004578
3.158000	0.019837
3.160000	0.007019
3.162000	-0.029297
3.164000	-0.020447
3.166000	-0.026856
3.168000	-0.016785
3.170000	-0.013123
3.172000	0.014038
3.174000	-0.025940
3.176000	-0.039673
3.178000	-0.009461
3.180000	-0.003662
3.182000	0.000305
3.184000	-0.024414
3.186000	-0.029297
3.188000	-0.025025
3.190000	0.002441
3.192000	-0.015259
3.194000	0.006714
3.196000	0.024414
3.198000	0.008240
3.200000	-0.009461
3.202000	0.007630
3.204000	-0.021363
3.206000	-0.017090
3.208000	0.016175
3.210000	0.025635
3.212000	0.008850
3.214000	-0.013123
3.216000	-0.033265
3.218000	-0.005798
3.220000	0.001526
3.222000	-0.004578
3.224000	-0.022889
3.226000	-0.010987
3.228000	0.006104
3.230000	-0.013428
3.232000	-0.012207
3.234000	0.003357
3.236000	-0.037537
3.238000	-0.054322
3.240000	-0.003967
3.242000	0.021057
3.244000	0.017700
3.246000	-0.017700
3.248000	-0.013123
3.250000	0.003967
3.252000	0.025330
3.254000	0.015869
3.256000	-0.030518
3.258000	-0.035096
3.260000	-0.005188
3.262000	0.033265
3.264000	0.007324
3.266000	-0.009155
3.268000	-0.006104
3.270000	0.021363
3.272000	0.002136
3.274000	-0.015869
3.276000	-0.020752
3.278000	0.024720
3.280000	0.043946
3.282000	0.016785
3.284000	-0.013428
3.286000	0.025025
3.288000	0.038758
3.290000	0.049134
3.292000	0.093385
3.294000	0.126040
3.296000	0.107729
3.298000	0.114443
3.300000	0.090028
3.302000	0.059205
3.304000	0.087587
3.306000	0.085145
3.308000	0.058900
3.310000	0.039063
3.312000	0.035096
3.314000	0.032654
3.316000	-0.013123
3.318000	-0.038758
3.320000	-0.060121
3.322000	-0.039673
3.324000	-0.041810
3.326000	-0.059205
3.328000	-0.020752
3.330000	-0.007935
3.332000	-0.051881
3.334000	-0.059815
3.336000	-0.062562
3.338000	-0.048524
3.340000	-0.029908
3.342000	-0.037842
3.344000	-0.052491
3.346000	-0.055848
3.348000	-0.058900
3.350000	-0.079957
3.352000	-0.050355
3.354000	-0.033570
3.356000	-0.034485
3.358000	-0.051881
3.360000	-0.064088
3.362000	-0.069276
3.364000	-0.022889
3.366000	-0.045777
3.368000	-0.096742
3.370000	-0.042115
3.372000	-0.043946
3.374000	-0.081788
3.376000	-0.075074
3.378000	-0.047303
3.380000	-0.106203
3.382000	-0.124819
3.384000	-0.053712
3.386000	0.120241
3.388000	0.339055
3.390000	0.520027
3.392000	0.700999
3.394000	0.932021
3.396000	1.055619
3.398000	0.828260
3.400000	0.367132
3.402000	0.017700
3.404000	-0.158389
3.406000	-0.183719
3.408000	-0.187991
3.410000	-0.129397
3.412000	-0.063478
3.414000	-0.048219
3.416000	-0.080873
3.418000	-0.032959
3.420000	-0.040589
3.422000	-0.003967
3.424000	0.029603
3.426000	-0.026551
3.428000	-0.057374
3.430000	-0.060121
3.432000	-0.046998
3.434000	-0.037537
3.436000	-0.032044
3.438000	-0.036011
3.440000	-0.042420
3.442000	-0.025940
3.444000	-0.013428
3.446000	-0.014649
3.448000	-0.034791
3.450000	-0.019226
3.452000	-0.012207
3.454000	0.024109
3.456000	-0.006104
3.458000	-0.065919
3.460000	-0.029297
3.462000	0.011292
3.464000	0.039979
3.466000	0.010681
3.468000	-0.042115
3.470000	-0.036622
3.472000	-0.028992
3.474000	-0.039063
3.476000	-0.002136
3.478000	0.012512
3.480000	0.016785
3.482000	0.003357
3.484000	0.014954
3.486000	0.019226
3.488000	-0.018921
3.490000	-0.068055
3.492000	-0.051270
3.494000	0.014343
3.496000	0.000000
3.498000	0.004273
3.500000	-0.015869
3.502000	-0.010987
3.504000	-0.016785
3.506000	-0.030518
3.508000	-0.002747
3.510000	-0.007019
3.512000	-0.005188
3.514000	0.036011
3.516000	0.018006
3.518000	0.018311
3.520000	0.004273
3.522000	-0.022889
3.524000	-0.014649
3.526000	0.017395
3.528000	0.036011
3.530000	0.045472
3.532000	0.087587
3.534000	0.083314
3.536000	0.058900
3.538000	0.085145
3.540000	0.100404
3.542000	0.084840
3.544000	0.107118
3.546000	0.140688
3.548000	0.118715
3.550000	0.086061
3.552000	0.060731
3.554000	0.036316
3.556000	0.017700
3.558000	0.006409
3.560000	-0.007324
3.562000	0.003357
3.564000	-0.036011
3.566000	-0.004578
3.568000	0.004273
3.570000	-0.005188
3.572000	-0.021363
3.574000	-0.027771
3.576000	0.030518
3.578000	0.025940
3.580000	-0.043641
3.582000	-0.051575
3.584000	-0.011597
3.586000	-0.030518
3.588000	0.016480
3.590000	-0.017395
3.592000	-0.030213
3.594000	0.014954
3.596000	0.043336
3.598000	0.020447
3.600000	0.000916
3.602000	0.008240
3.604000	-0.006104
3.606000	-0.056458
3.608000	-0.040284
3.610000	0.005188
3.612000	-0.009155
3.614000	-0.022889
3.616000	0.004578
3.618000	0.021668
3.620000	-0.011292
3.622000	-0.028382
3.624000	-0.018006
3.626000	-0.011902
3.628000	0.007019
3.630000	0.004273
3.632000	-0.022889
3.634000	-0.052796
3.636000	-0.020752
3.638000	0.007019
3.640000	-0.012512
3.642000	-0.005493
3.644000	-0.031739
3.646000	-0.030518
3.648000	0.005188
3.650000	-0.009461
3.652000	-0.010376
3.654000	-0.030213
3.656000	-0.021363
3.658000	-0.028687
3.660000	0.009766
3.662000	0.038453
3.664000	0.001831
3.666000	0.000000
3.668000	-0.011292
3.670000	0.008850
3.672000	0.009155
3.674000	-0.003052
3.676000	0.006714
3.678000	0.003662
3.680000	-0.005798
3.682000	-0.001831
3.684000	-0.016175
3.686000	0.002747
3.688000	0.003967
3.690000	-0.016480
3.692000	0.034485
3.694000	0.050355
3.696000	0.023499
3.698000	0.025025
3.700000	-0.018006
3.702000	0.017395
3.704000	0.042725
3.706000	0.000610
3.708000	-0.016480
3.710000	-0.057374
3.712000	-0.016175
3.714000	0.031434
3.716000	0.015564
3.718000	0.020447
3.720000	0.035096
3.722000	0.003662
3.724000	0.001831
3.726000	0.021668
3.728000	0.023194
3.730000	-0.012818
3.732000	-0.018921
3.734000	-0.024414
3.736000	-0.003357
3.738000	0.022889
3.740000	-0.021363
3.742000	0.026246
3.744000	0.086061
3.746000	0.035401
3.748000	-0.014038
3.750000	0.017090
3.752000	-0.000305
3.754000	-0.004273
3.756000	-0.014343
3.758000	-0.021363
3.760000	-0.003662
3.762000	0.011902
3.764000	0.008850
3.766000	0.011597
3.768000	0.003357
3.770000	-0.020447
3.772000	-0.015564
3.774000	-0.020447
3.776000	-0.003357
3.778000	0.015869
3.780000	-0.018616
3.782000	0.015259
3.784000	0.043946
3.786000	0.021363
3.788000	-0.021973
3.790000	-0.027466
3.792000	0.046693
3.794000	0.036316
3.796000	0.042725
3.798000	0.050660
3.800000	0.015869
3.802000	0.007324
3.804000	0.029908
3.806000	0.037537
3.808000	0.017090
3.810000	0.021973
3.812000	0.054932
3.814000	0.043336
3.816000	0.025940
3.818000	0.018616
3.820000	0.007935
3.822000	0.050965
3.824000	0.098573
3.826000	0.102541
3.828000	0.137331
3.830000	0.138857
3.832000	0.115663
3.834000	0.105592
3.836000	0.090944
3.838000	0.093385
3.840000	0.089723
3.842000	0.041199
3.844000	0.039063
3.846000	0.062562
3.848000	0.040894
3.850000	-0.009155
3.852000	-0.034791
3.854000	0.010376
3.856000	0.009461
3.858000	-0.005493
3.860000	-0.011597
3.862000	-0.047303
3.864000	-0.044251
3.866000	0.001526
3.868000	-0.042725
3.870000	-0.070802
3.872000	-0.046387
3.874000	-0.084535
3.876000	-0.072328
3.878000	-0.050965
3.880000	-0.069276
3.882000	-0.081788
3.884000	-0.069581
3.886000	-0.011292
3.888000	-0.026856
3.890000	-0.037537
3.892000	-0.014649
3.894000	0.003662
3.896000	-0.046082
3.898000	-0.076600
3.900000	-0.057984
3.902000	-0.047303
3.904000	-0.047913
3.906000	-0.104982
3.908000	-0.140383
3.910000	-0.124514
3.912000	-0.037842
3.914000	0.135195
3.916000	0.314641
3.918000	0.462959
3.920000	0.686046
3.922000	0.918593
3.924000	1.050126
3.926000	0.832532
3.928000	0.387274
3.930000	0.010376
3.932000	-0.202335
3.934000	-0.184634
3.936000	-0.172427
3.938000	-0.107424
3.940000	-0.050660
3.942000	-0.067140
3.944000	-0.059510
3.946000	-0.009461
3.948000	-0.032349
3.950000	-0.085145
3.952000	-0.062867
3.954000	-0.043336
3.956000	-0.033265
3.958000	-0.029297
3.960000	-0.015259
3.962000	-0.031739
3.964000	-0.040589
3.966000	-0.023194
3.968000	-0.046387
3.970000	-0.077516
3.972000	-0.069276
3.974000	-0.107424
3.976000	-0.065919
3.978000	-0.010987
3.980000	-0.037537
3.982000	-0.033570
3.984000	-0.016785
3.986000	-0.022583
3.988000	-0.012512
3.990000	-0.024414
3.992000	-0.042725
3.994000	-0.038453
3.996000	-0.035401
3.998000	-0.051270
4.000000	-0.046693
4.002000	-0.001221
4.004000	0.045167
4.006000	-0.005493
4.008000	-0.070802
4.010000	-0.054017
4.012000	0.007324
4.014000	0.018616
4.016000	-0.005188
4.018000	-0.024720
4.020000	-0.009461
4.022000	-0.012512
4.024000	-0.018616
4.026000	-0.005493
4.028000	0.001831
4.030000	-0.018006
4.032000	-0.043946
4.034000	-0.005188
4.036000	-0.000610
4.038000	-0.019532
4.040000	-0.010987
4.042000	-0.025635
4.044000	0.011292
4.046000	0.011292
4.048000	0.010071
4.050000	0.000916
4.052000	-0.003052
4.054000	0.013733
4.056000	0.005798
4.058000	0.022889
4.060000	0.052491
4.062000	0.068971
4.064000	0.063172
4.066000	0.112001
4.068000	0.138247
4.070000	0.126345
4.072000	0.094911
4.074000	0.082704
4.076000	0.081178
4.078000	0.064088
4.080000	0.040894
4.082000	0.045167
4.084000	0.015259
4.086000	0.033570
4.088000	0.027161
4.090000	-0.026856
4.092000	-0.017700
4.094000	0.021363
4.096000	0.010071
4.098000	0.003357
4.100000	-0.010987
4.102000	-0.027771
4.104000	-0.032654
4.106000	-0.039368
4.108000	-0.050660
4.110000	-0.043641
4.112000	-0.021668
4.114000	-0.010987
4.116000	-0.010071
4.118000	0.005798
4.120000	-0.016480
4.122000	-0.044862
4.124000	-0.038453
4.126000	-0.040589
4.128000	-0.006104
4.130000	0.010071
4.132000	0.000000
4.134000	-0.003662
4.136000	-0.018311
4.138000	0.008240
4.140000	-0.036927
4.142000	-0.069276
4.144000	-0.014649
4.146000	0.032654
4.148000	-0.000610
4.150000	-0.011902
4.152000	-0.001526
4.154000	-0.020142
4.156000	-0.019226
4.158000	-0.040284
4.160000	-0.025940
4.162000	-0.017700
4.164000	-0.000610
4.166000	-0.012512
4.168000	-0.032654
4.170000	-0.018311
4.172000	-0.018921
4.174000	-0.018616
4.176000	-0.031739
4.178000	0.006409
4.180000	0.011292
4.182000	-0.042725
4.184000	-0.079957
4.186000	0.021363
4.188000	0.019837
4.190000	-0.005188
4.192000	0.013428
4.194000	0.006104
4.196000	-0.017395
4.198000	0.000000
4.200000	0.004273
4.202000	0.007935
4.204000	0.017700
4.206000	0.024109
4.208000	0.007019
4.210000	-0.021668
4.212000	-0.004273
4.214000	0.000000
4.216000	0.007630
4.218000	0.010071
4.220000	0.002747
4.222000	0.015564
4.224000	-0.020447
4.226000	0.007019
4.228000	0.034180
4.230000	-0.029603
4.232000	-0.011292
4.234000	-0.003967
4.236000	0.023194
4.238000	0.041199
4.240000	0.021057
4.242000	0.007935
4.244000	0.019837
4.246000	-0.009155
4.248000	-0.017090
4.250000	0.029297
4.252000	0.026246
4.254000	0.018616
4.256000	-0.008850
4.258000	-0.015869
4.260000	-0.005188
4.262000	0.006409
4.264000	0.025025
4.266000	0.000916
4.268000	0.043030
4.270000	0.032654
4.272000	-0.021057
4.274000	0.003967
4.276000	0.048829
4.278000	0.059510
4.280000	0.054322
4.282000	0.058595
4.284000	0.017090
4.286000	0.023804
4.288000	0.039979
4.290000	0.022278
4.292000	0.076905
4.294000	0.126650
4.296000	0.130312
4.298000	0.100404
4.300000	0.085145
4.302000	0.084230
4.304000	0.108339
4.306000	0.086671
4.308000	0.063172
4.310000	0.087892
4.312000	0.058289
4.314000	0.036316
4.316000	0.017700
4.318000	0.001831
4.320000	0.008850
4.322000	-0.012207
4.324000	-0.029908
4.326000	-0.029603
4.328000	-0.019532
4.330000	-0.014649
4.332000	-0.033265
4.334000	-0.060121
4.336000	-0.048219
4.338000	-0.032959
4.340000	-0.046998
4.342000	-0.056458
4.344000	-0.045777
4.346000	-0.039979
4.348000	-0.050050
4.350000	-0.051575
4.352000	-0.037537
4.354000	-0.035096
4.356000	-0.050660
4.358000	-0.027466
4.360000	-0.063172
4.362000	-0.070192
4.364000	-0.031128
4.366000	-0.029603
4.368000	-0.030518
4.370000	-0.038758
4.372000	-0.021057
4.374000	-0.035401
4.376000	-0.097047
4.378000	-0.096132
4.380000	-0.020142
4.382000	0.119631
4.384000	0.321355
4.386000	0.510262
4.388000	0.686961
4.390000	0.898756
4.392000	1.095903
4.394000	0.998245
4.396000	0.521859
4.398000	0.115663
4.400000	-0.148318
4.402000	-0.190738
4.404000	-0.169070
4.406000	-0.114137
4.408000	-0.086061
4.410000	-0.072633
4.412000	-0.038453
4.414000	-0.031739
4.416000	-0.064393
4.418000	-0.065309
4.420000	-0.045167
4.422000	-0.032959
4.424000	-0.036316
4.426000	-0.028077
4.428000	-0.037842
4.430000	-0.051270
4.432000	-0.044862
4.434000	-0.028687
4.436000	-0.007324
4.438000	-0.009461
4.440000	-0.034485
4.442000	-0.034485
4.444000	-0.002441
4.446000	-0.003967
4.448000	-0.017395
4.450000	-0.025330
4.452000	-0.017700
4.454000	0.000916
4.456000	-0.030518
4.458000	-0.058900
4.460000	-0.039063
4.462000	-0.024720
4.464000	-0.029908
4.466000	-0.037842
4.468000	-0.027466
4.470000	-0.017395
4.472000	-0.039368
4.474000	-0.015259
4.476000	-0.017700
4.478000	-0.044862
4.480000	-0.015259
4.482000	-0.058595
4.484000	-0.082094
4.486000	-0.017090
4.488000	0.018921
4.490000	-0.028992
4.492000	-0.042420
4.494000	-0.018311
4.496000	-0.002747
4.498000	-0.007935
4.500000	-0.022889
4.502000	-0.021668
4.504000	-0.009766
4.506000	-0.002747
4.508000	-0.001831
4.510000	-0.002747
4.512000	0.012512
4.514000	0.017090
4.516000	0.017700
4.518000	0.026856
4.520000	0.033265
4.522000	0.015259
4.524000	0.003662
4.526000	0.015869
4.528000	0.066835
4.530000	0.080568
4.532000	0.082399
4.534000	0.131838
4.536000	0.101625
4.538000	0.112612
4.540000	0.130617
4.542000	0.083925
4.544000	0.037232
4.546000	0.072938
4.548000	0.064393
4.550000	0.026246
4.552000	0.028382
4.554000	0.027771
4.556000	0.010071
4.558000	0.003052
4.560000	-0.009461
4.562000	0.002136
4.564000	-0.007935
4.566000	-0.015259
4.568000	-0.021973
4.570000	-0.028382
4.572000	-0.025330
4.574000	-0.030213
4.576000	-0.072023
4.578000	-0.070497
4.580000	0.022278
4.582000	0.014954
4.584000	-0.010987
4.586000	0.006409
4.588000	-0.001526
4.590000	-0.019532
4.592000	-0.015564
4.594000	-0.016175
4.596000	-0.010376
4.598000	-0.004273
4.600000	-0.025330
4.602000	-0.033570
4.604000	-0.036622
4.606000	-0.020752
4.608000	-0.004273
4.610000	-0.007019
4.612000	-0.021363
4.614000	-0.008850
4.616000	-0.039673
4.618000	-0.028992
4.620000	0.008850
4.622000	0.005493
4.624000	-0.017700
4.626000	-0.006104
4.628000	-0.008545
4.630000	-0.015869
4.632000	-0.016480
4.634000	-0.014954
4.636000	-0.002136
4.638000	0.003662
4.640000	-0.006409
4.642000	-0.027466
4.644000	-0.016480
4.646000	-0.014343
4.648000	-0.025025
4.650000	-0.016480
4.652000	0.016785
4.654000	0.003662
4.656000	-0.014038
4.658000	-0.039063
4.660000	-0.016785
4.662000	-0.009155
4.664000	0.007935
4.666000	-0.035401
4.668000	-0.013428
4.670000	0.035096
4.672000	0.012207
4.674000	-0.034485
4.676000	0.000000
4.678000	0.014649
4.680000	-0.007324
4.682000	-0.031128
4.684000	-0.005798
4.686000	0.000000
4.688000	0.012207
4.690000	-0.002441
4.692000	-0.012207
4.694000	-0.014038
4.696000	-0.002441
4.698000	-0.006714
4.700000	0.007630
4.702000	0.034485
4.704000	0.055848
4.706000	0.044251
4.708000	0.014954
4.710000	0.019532
4.712000	0.033265
4.714000	0.021973
4.716000	0.037232
4.718000	0.060121
4.720000	0.062867
4.722000	0.078126
4.724000	0.137331
4.726000	0.135195
4.728000	0.120546
4.730000	0.111086
4.732000	0.103456
4.734000	0.151064
4.736000	0.171511
4.738000	0.126040
4.740000	0.062257
4.742000	0.008240
4.744000	0.017700
4.746000	-0.011292
4.748000	-0.034180
4.750000	-0.002441
4.752000	-0.008240
4.754000	0.002441
4.756000	-0.032959
4.758000	-0.030823
4.760000	-0.036011
4.762000	-0.023194
4.764000	-0.032959
4.766000	-0.044556
4.768000	-0.037232
4.770000	-0.017395
4.772000	-0.028687
4.774000	-0.058595
4.776000	-0.046082
4.778000	-0.041199
4.780000	-0.021363
4.782000	-0.020752
4.784000	-0.019532
4.786000	-0.028382
4.788000	-0.035401
4.790000	-0.045167
4.792000	-0.056153
4.794000	-0.044251
4.796000	-0.037232
4.798000	-0.041505
4.800000	-0.037842
4.802000	-0.070497
4.804000	-0.068971
4.806000	0.007630
4.808000	0.170291
4.810000	0.369879
4.812000	0.568551
4.814000	0.733654
4.816000	0.943923
4.818000	1.084916
4.820000	0.964675
4.822000	0.441596
4.824000	0.014954
4.826000	-0.167239
4.828000	-0.177005
4.830000	-0.178836
4.832000	-0.125734
4.834000	-0.046387
4.836000	-0.034485
4.838000	-0.008850
4.840000	-0.004883
4.842000	-0.014038
4.844000	-0.031128
4.846000	-0.047913
4.848000	-0.053101
4.850000	-0.056764
4.852000	-0.061341
4.854000	-0.035096
4.856000	-0.024414
4.858000	-0.037842
4.860000	-0.029603
4.862000	-0.023804
4.864000	-0.039673
4.866000	-0.024414
4.868000	-0.004578
4.870000	-0.002747
4.872000	-0.004883
4.874000	-0.008850
4.876000	-0.044556
4.878000	-0.013733
4.880000	0.000610
4.882000	-0.043946
4.884000	-0.010071
4.886000	0.011597
4.888000	0.007630
4.890000	-0.004273
4.892000	0.000305
4.894000	0.039368
4.896000	0.034180
4.898000	-0.006714
4.900000	-0.028077
4.902000	-0.003967
4.904000	0.013733
4.906000	-0.002136
4.908000	-0.023499
4.910000	-0.013733
4.912000	-0.022278
4.914000	-0.013428
4.916000	-0.021973
4.918000	-0.029908
4.920000	0.007324
4.922000	-0.017090
4.924000	-0.025330
4.926000	-0.007019
4.928000	0.027466
4.930000	0.014954
4.932000	0.020142
4.934000	0.022278
4.936000	0.029297
4.938000	0.032959
4.940000	0.043641
4.942000	0.041810
4.944000	0.056458
4.946000	0.043336
4.948000	0.039063
4.950000	0.042420
4.952000	0.057374
4.954000	0.072023
4.956000	0.096132
4.958000	0.106813
4.960000	0.087587
4.962000	0.077821
4.964000	0.090333
4.966000	0.102541
4.968000	0.066835
4.970000	0.052491
4.972000	0.055848
4.974000	0.035096
4.976000	-0.002747
4.978000	0.003052
4.980000	0.002441
4.982000	-0.031128
4.984000	-0.027466
4.986000	0.006104
4.988000	0.037842
4.990000	-0.004578
4.992000	-0.038148
4.994000	-0.012818
4.996000	-0.017700
4.998000	-0.018006
5.000000	-0.019837
5.002000	0.003662
5.004000	0.009766
5.006000	-0.048219
5.008000	-0.046387
5.010000	-0.018921
5.012000	-0.018616
5.014000	-0.036927
5.016000	-0.025025
5.018000	-0.014649
5.020000	-0.009766
5.022000	-0.019532
5.024000	-0.009461
5.026000	-0.024720
5.028000	-0.007019
5.030000	-0.001526
5.032000	-0.032044
5.034000	-0.025635
5.036000	-0.000916
5.038000	-0.007019
5.040000	-0.048524
5.042000	-0.021668
5.044000	0.002441
5.046000	-0.010681
5.048000	-0.004883
5.050000	0.011292
5.052000	-0.002747
5.054000	-0.032654
5.056000	-0.036622
5.058000	-0.026856
5.060000	-0.019837
5.062000	0.000916
5.064000	0.014343
5.066000	-0.032044
5.068000	-0.039673
5.070000	0.010987
5.072000	0.010681
5.074000	-0.023804
5.076000	-0.030213
5.078000	-0.029297
5.080000	-0.040894
5.082000	-0.034180
5.084000	-0.062257
5.086000	-0.027161
5.088000	0.013123
5.090000	0.008545
5.092000	-0.012512
5.094000	0.007019
5.096000	0.013428
5.098000	0.014343
5.100000	0.027161
5.102000	0.006714
5.104000	0.032959
5.106000	0.067750
5.108000	0.098268
5.110000	0.107118
5.112000	0.114748
5.114000	0.091859
5.116000	0.075990
5.118000	0.082399
5.120000	0.080873
5.122000	0.067445
5.124000	0.058900
5.126000	0.040894
5.128000	0.046998
5.130000	0.039979
5.132000	-0.026856
5.134000	-0.051575
5.136000	-0.015869
5.138000	-0.027466
5.140000	-0.052491
5.142000	-0.024720
5.144000	-0.047303
5.146000	-0.026246
5.148000	-0.004273
5.150000	-0.036927
5.152000	-0.032349
5.154000	-0.036011
5.156000	-0.042115
5.158000	-0.077821
5.160000	-0.086061
5.162000	-0.061036
5.164000	-0.063478
5.166000	-0.080568
5.168000	-0.062562
5.170000	-0.052186
5.172000	-0.036622
5.174000	-0.061646
5.176000	-0.092164
5.178000	-0.083314
5.180000	-0.093996
5.182000	-0.077516
5.184000	-0.058595
5.186000	-0.081483
5.188000	-0.119326
5.190000	-0.072633
5.192000	0.068055
5.194000	0.284123
5.196000	0.437629
5.198000	0.607919
5.200000	0.810864
5.202000	1.033951
5.204000	1.054398
5.206000	0.688182
5.208000	0.202335
5.210000	-0.089723
5.212000	-0.203555
5.214000	-0.228580
5.216000	-0.204166
5.218000	-0.134890
5.220000	-0.079347
5.222000	-0.056764
5.224000	-0.074159
5.226000	-0.062562
5.228000	-0.038148
5.230000	-0.053407
5.232000	-0.078126
5.234000	-0.082704
5.236000	-0.034180
5.238000	-0.048829
5.240000	-0.080873
5.242000	-0.083314
5.244000	-0.053101
5.246000	-0.002441
5.248000	-0.019226
5.250000	-0.033875
5.252000	-0.035096
5.254000	-0.026856
5.256000	-0.049744
5.258000	-0.075074
5.260000	-0.068055
5.262000	-0.051575
5.264000	-0.051270
5.266000	-0.068971
5.268000	-0.051881
5.270000	-0.048524
5.272000	-0.053407
5.274000	-0.040589
5.276000	-0.042115
5.278000	-0.017395
5.280000	-0.011292
5.282000	-0.037537
5.284000	-0.032654
5.286000	-0.025330
5.288000	-0.031128
5.290000	-0.013733
5.292000	-0.014343
5.294000	0.017700
5.296000	0.011597
5.298000	-0.083314
5.300000	-0.077211
5.302000	-0.010681
5.304000	-0.030518
5.306000	-0.075074
5.308000	-0.068666
5.310000	-0.054627
5.312000	-0.053101
5.314000	-0.043641
5.316000	-0.058289
5.318000	-0.064088
5.320000	-0.019226
5.322000	-0.008850
5.324000	-0.025025
5.326000	0.003967
5.328000	0.035096
5.330000	-0.004273
5.332000	-0.008850
5.334000	0.032349
5.336000	0.044862
5.338000	0.054627
5.340000	0.062257
5.342000	0.060121
5.344000	0.069276
5.346000	0.076905
5.348000	0.050965
5.350000	0.039979
5.352000	0.041199
5.354000	0.025025
5.356000	0.005798
5.358000	-0.034791
5.360000	-0.014649
5.362000	-0.004883
5.364000	-0.026856
5.366000	-0.037537
5.368000	-0.015259
5.370000	-0.027771
5.372000	-0.024109
5.374000	-0.024414
5.376000	-0.024414
5.378000	-0.025635
5.380000	-0.030518
5.382000	-0.034791
5.384000	-0.037232
5.386000	-0.051270
5.388000	-0.034180
5.390000	-0.012207
5.392000	-0.024720
5.394000	-0.010681
5.396000	0.007019
5.398000	-0.008850
5.400000	-0.004883
5.402000	0.006104
5.404000	-0.017395
5.406000	-0.021973
5.408000	-0.049744
5.410000	-0.054627
5.412000	-0.050965
5.414000	-0.042725
5.416000	-0.033570
5.418000	-0.024414
5.420000	-0.020447
5.422000	-0.035401
5.424000	-0.041810
5.426000	-0.008850
5.428000	-0.008545
5.430000	-0.017700
5.432000	-0.041810
5.434000	-0.037842
5.436000	-0.024414
5.438000	0.013733
5.440000	-0.010987
5.442000	-0.017700
5.444000	-0.015869
5.446000	-0.030823
5.448000	-0.021668
5.450000	-0.035096
5.452000	0.019837
5.454000	0.060121
5.456000	0.043030
5.458000	-0.016785
5.460000	-0.018921
5.462000	0.035096
5.464000	0.042725
5.466000	0.007630
5.468000	0.050355
5.470000	0.114748
5.472000	0.133364
5.474000	0.098268
5.476000	0.086366
5.478000	0.102846
5.480000	0.065003
5.482000	0.081178
5.484000	0.092164
5.486000	0.055848
5.488000	0.046998
5.490000	0.015259
5.492000	0.010376
5.494000	0.024109
5.496000	0.034180
5.498000	-0.008545
5.500000	-0.031739
5.502000	-0.041810
5.504000	-0.050050
5.506000	-0.059815
5.508000	-0.090028
5.510000	-0.072328
5.512000	-0.019226
5.514000	0.000916
5.516000	-0.018006
5.518000	-0.066529
5.520000	-0.063478
5.522000	-0.058595
5.524000	-0.065919
5.526000	-0.065919
5.528000	-0.086671
5.530000	-0.077516
5.532000	-0.106508
5.534000	-0.062867
5.536000	-0.046998
5.538000	-0.033570
5.540000	-0.043946
5.542000	-0.059510
5.544000	-0.030213
5.546000	-0.036622
5.548000	-0.104372
5.550000	-0.136110
5.552000	-0.065614
5.554000	0.128481
5.556000	0.314641
5.558000	0.469673
5.560000	0.643015
5.562000	0.876783
5.564000	1.057755
5.566000	0.938735
5.568000	0.472419
5.570000	0.046082
5.572000	-0.177615
5.574000	-0.244755
5.576000	-0.198062
5.578000	-0.124514
5.580000	-0.051881
5.582000	-0.057374
5.584000	-0.086671
5.586000	-0.066835
5.588000	-0.028077
5.590000	-0.007019
5.592000	-0.029603
5.594000	-0.047303
5.596000	-0.046693
5.598000	-0.060121
5.600000	-0.060121
5.602000	-0.057984
5.604000	-0.066224
5.606000	-0.070192
5.608000	-0.075685
5.610000	-0.065614
5.612000	-0.053407
5.614000	-0.037232
5.616000	-0.044556
5.618000	-0.061036
5.620000	-0.046387
5.622000	-0.035706
5.624000	-0.028077
5.626000	-0.034791
5.628000	-0.037537
5.630000	-0.042725
5.632000	-0.065614
5.634000	0.003662
5.636000	-0.010681
5.638000	-0.060731
5.640000	-0.049134
5.642000	-0.028687
5.644000	-0.038453
5.646000	-0.054932
5.648000	-0.053712
5.650000	-0.055543
5.652000	-0.050355
5.654000	-0.046998
5.656000	-0.051575
5.658000	-0.051881
5.660000	-0.041810
5.662000	-0.039063
5.664000	-0.061036
5.666000	-0.043336
5.668000	-0.063783
5.670000	-0.059815
5.672000	-0.017395
5.674000	-0.004578
5.676000	0.016175
5.678000	0.003357
5.680000	-0.008545
5.682000	-0.019837
5.684000	-0.010071
5.686000	-0.024109
5.688000	-0.023499
5.690000	-0.049134
5.692000	-0.025025
5.694000	-0.007630
5.696000	0.008850
5.698000	0.024720
5.700000	0.039063
5.702000	0.095216
5.704000	0.103761
5.706000	0.083619
5.708000	0.045472
5.710000	0.068360
5.712000	0.067140
5.714000	0.050660
5.716000	0.043030
5.718000	0.022278
5.720000	-0.011292
5.722000	-0.039979
5.724000	-0.083619
5.726000	-0.039673
5.728000	0.032959
5.730000	0.023499
5.732000	-0.040894
5.734000	-0.062562
5.736000	-0.030213
5.738000	-0.009155
5.740000	-0.024414
5.742000	-0.048829
5.744000	-0.031434
5.746000	0.008850
5.748000	-0.010071
5.750000	-0.054322
5.752000	-0.077516
5.754000	-0.029297
5.756000	-0.046998
5.758000	-0.068055
5.760000	-0.037842
5.762000	-0.039368
5.764000	-0.053407
5.766000	0.000000
5.768000	-0.012207
5.770000	-0.028687
5.772000	-0.034180
5.774000	-0.025330
5.776000	-0.010376
5.778000	-0.080262
5.780000	-0.061952
5.782000	-0.041199
5.784000	-0.007630
5.786000	0.009155
5.788000	-0.013428
5.790000	-0.040894
5.792000	-0.029297
5.794000	-0.027771
5.796000	-0.019532
5.798000	0.013733
5.800000	-0.019226
5.802000	-0.032959
5.804000	-0.028077
5.806000	-0.061952
5.808000	-0.042115
5.810000	-0.016785
5.812000	-0.026246
5.814000	0.001526
5.816000	0.005798
5.818000	-0.053407
5.820000	-0.020447
5.822000	0.017090
5.824000	0.013428
5.826000	0.016175
5.828000	0.041505
5.830000	0.083314
5.832000	0.087282
5.834000	0.054627
5.836000	0.065309
5.838000	0.094911
5.840000	0.097353
5.842000	0.054932
5.844000	0.057679
5.846000	0.065614
5.848000	0.063478
5.850000	0.052186
5.852000	0.028382
5.854000	0.003052
5.856000	0.005798
5.858000	0.005493
5.860000	-0.056153
5.862000	-0.060426
5.864000	-0.025635
5.866000	-0.042420
5.868000	-0.056458
5.870000	-0.067445
5.872000	-0.054932
5.874000	-0.055238
5.876000	-0.073854
5.878000	-0.056153
5.880000	-0.066835
5.882000	-0.075685
5.884000	-0.061952
5.886000	-0.047303
5.888000	-0.050050
5.890000	-0.059205
5.892000	-0.053101
5.894000	-0.074464
5.896000	-0.083619
5.898000	-0.039673
5.900000	-0.031128
5.902000	-0.059205
5.904000	-0.066224
5.906000	-0.107424
5.908000	-0.182498
5.910000	-0.215152
5.912000	-0.136721
5.914000	-0.000305
5.916000	0.140078
5.918000	0.333867
5.920000	0.518196
5.922000	0.748302
5.924000	0.985122
5.926000	1.056229
5.928000	0.711681
5.930000	0.240177
5.932000	-0.111391
5.934000	-0.236820
5.936000	-0.241398
5.938000	-0.152285
5.940000	-0.135195
5.942000	-0.117800
5.944000	-0.075685
5.946000	-0.021057
5.948000	-0.031739
5.950000	-0.078431
5.952000	-0.104677
5.954000	-0.028687
5.956000	-0.066224
5.958000	-0.094606
5.960000	-0.065919
5.962000	-0.080568
5.964000	-0.087282
5.966000	-0.084840
5.968000	-0.075685
5.970000	-0.057374
5.972000	-0.073548
5.974000	-0.094606
5.976000	-0.076905
5.978000	-0.067750
5.980000	-0.058595
5.982000	-0.052796
5.984000	-0.049744
5.986000	-0.090333
5.988000	-0.105898
5.990000	-0.036316
5.992000	-0.042420
5.994000	-0.046387
5.996000	-0.049744
5.998000	-0.045777
6.000000	-0.064393
6.002000	-0.081483
6.004000	-0.057069
6.006000	-0.024109
6.008000	-0.049744
6.010000	-0.047913
6.012000	-0.040894
6.014000	-0.018921
6.016000	-0.049744
6.018000	-0.048829
6.020000	-0.041810
6.022000	-0.083619
6.024000	-0.036011
6.026000	0.003662
6.028000	-0.040589
6.030000	-0.069886
6.032000	-0.060121
6.034000	-0.029908
6.036000	0.006409
6.038000	0.000305
6.040000	-0.072023
6.042000	-0.066224
6.044000	-0.011597
6.046000	-0.011597
6.048000	-0.033265
6.050000	-0.006409
6.052000	0.010376
6.054000	0.025940
6.056000	0.006409
6.058000	0.005798
6.060000	0.061036
6.062000	0.059815
6.064000	0.060121
6.066000	0.080262
6.068000	0.074464
6.070000	0.035096
6.072000	0.063783
6.074000	0.048524
6.076000	0.024414
6.078000	-0.003357
6.080000	-0.012512
6.082000	-0.034791
6.084000	0.000916
6.086000	-0.006409
6.088000	-0.036011
6.090000	-0.031434
6.092000	-0.044862
6.094000	-0.017700
6.096000	0.001831
6.098000	-0.022889
6.100000	-0.045167
6.102000	-0.054322
6.104000	-0.060121
6.106000	-0.021057
6.108000	-0.040894
6.110000	-0.024109
6.112000	0.007019
6.114000	-0.002747
6.116000	-0.048219
6.118000	-0.080873
6.120000	-0.073548
6.122000	-0.001221
6.124000	0.003967
6.126000	-0.021668
6.128000	-0.024414
6.130000	-0.018311
6.132000	-0.001221
6.134000	-0.057374
6.136000	0.004578
6.138000	-0.003967
6.140000	-0.041505
6.142000	-0.042115
6.144000	-0.051575
6.146000	-0.028687
6.148000	-0.003967
6.150000	-0.049134
6.152000	-0.068360
6.154000	-0.037537
6.156000	-0.037842
6.158000	-0.056153
6.160000	-0.078126
6.162000	-0.042115
6.164000	0.000000
6.166000	-0.014649
6.168000	-0.028382
6.170000	-0.005493
6.172000	0.017395
6.174000	-0.020447
6.176000	-0.030823
6.178000	-0.012512
6.180000	0.011902
6.182000	0.015869
6.184000	0.005188
6.186000	0.060121
6.188000	0.155337
6.190000	0.147097
6.192000	0.099489
6.194000	0.057679
6.196000	0.077821
6.198000	0.082094
6.200000	0.076295
6.202000	0.052796
6.204000	0.042115
6.206000	0.037537
6.208000	0.006714
6.210000	0.003967
6.212000	0.008545
6.214000	0.007324
6.216000	-0.020142
6.218000	-0.038453
6.220000	-0.041505
6.222000	-0.042725
6.224000	-0.077211
6.226000	-0.084535
6.228000	-0.075380
6.230000	-0.046387
6.232000	-0.037232
6.234000	-0.074159
6.236000	-0.072938
6.238000	-0.066835
6.240000	-0.076295
6.242000	-0.107118
6.244000	-0.043946
6.246000	-0.050965
6.248000	-0.079347
6.250000	-0.076295
6.252000	-0.056764
6.254000	-0.065919
6.256000	-0.094301
6.258000	-0.050050
6.260000	-0.073243
6.262000	-0.077211
6.264000	-0.062562
6.266000	-0.130312
6.268000	-0.180362
6.270000	-0.139467
6.272000	-0.001526
6.274000	0.177920
6.276000	0.359197
6.278000	0.517891
6.280000	0.715038
6.282000	0.943618
6.284000	1.042191
6.286000	0.738231
6.288000	0.267948
6.290000	-0.061952
6.292000	-0.209354
6.294000	-0.189212
6.296000	-0.157473
6.298000	-0.138247
6.300000	-0.109865
6.302000	-0.060121
6.304000	-0.083314
6.306000	-0.057984
6.308000	-0.027466
6.310000	-0.068360
6.312000	-0.115053
6.314000	-0.092470
6.316000	-0.105287
6.318000	-0.124208
6.320000	-0.088502
6.322000	-0.084535
6.324000	-0.101320
6.326000	-0.086366
6.328000	-0.078737
6.330000	-0.084840
6.332000	-0.083009
6.334000	-0.083925
6.336000	-0.056153
6.338000	-0.039979
6.340000	-0.048829
6.342000	-0.032654
6.344000	-0.020142
6.346000	-0.056764
6.348000	-0.081788
6.350000	-0.042115
6.352000	-0.043946
6.354000	-0.050660
6.356000	-0.008545
6.358000	-0.065919
6.360000	-0.075074
6.362000	-0.049744
6.364000	-0.048219
6.366000	-0.078126
6.368000	-0.065309
6.370000	-0.059815
6.372000	-0.062867
6.374000	-0.039368
6.376000	-0.044251
6.378000	-0.040589
6.380000	-0.064698
6.382000	-0.058900
6.384000	-0.052796
6.386000	-0.048829
6.388000	-0.039979
6.390000	-0.040589
6.392000	-0.072633
6.394000	-0.074464
6.396000	-0.026551
6.398000	0.003662
6.400000	-0.003357
6.402000	-0.015869
6.404000	-0.011902
6.406000	-0.011292
6.408000	-0.018311
6.410000	0.013733
6.412000	-0.013123
6.414000	0.007935
6.416000	0.051270
6.418000	0.084230
6.420000	0.089723
6.422000	0.115969
6.424000	0.105898
6.426000	0.087282
6.428000	0.098573
6.430000	0.090333
6.432000	0.018311
6.434000	0.019837
6.436000	-0.010681
6.438000	-0.033265
6.440000	-0.019532
6.442000	-0.059510
6.444000	-0.055848
6.446000	-0.030213
6.448000	-0.006714
6.450000	-0.017395
6.452000	-0.048829
6.454000	-0.047303
6.456000	-0.070497
6.458000	-0.043641
6.460000	-0.034485
6.462000	-0.031128
6.464000	-0.035401
6.466000	-0.039673
6.468000	-0.018311
6.470000	0.004883
6.472000	-0.031434
6.474000	-0.041199
6.476000	-0.012207
6.478000	-0.018921
6.480000	-0.037537
6.482000	-0.019837
6.484000	-0.024414
6.486000	-0.066529
6.488000	-0.072938
6.490000	-0.053101
6.492000	-0.036622
6.494000	0.000305
6.496000	0.006714
6.498000	-0.029908
6.500000	-0.036927
6.502000	-0.018616
6.504000	-0.014649
6.506000	-0.072328
6.508000	-0.047608
6.510000	-0.026246
6.512000	-0.006714
6.514000	-0.038148
6.516000	-0.043336
6.518000	0.011292
6.520000	0.021363
6.522000	-0.033570
6.524000	-0.080873
6.526000	-0.046082
6.528000	-0.009766
6.530000	-0.011292
6.532000	-0.027161
6.534000	-0.037232
6.536000	-0.030213
6.538000	-0.035096
6.540000	-0.055238
6.542000	-0.035706
6.544000	-0.017090
6.546000	-0.010071
6.548000	-0.010681
6.550000	-0.025330
6.552000	0.018616
6.554000	0.026856
6.556000	-0.021668
6.558000	-0.042420
6.560000	-0.008850
6.562000	-0.012818
6.564000	-0.039063
6.566000	-0.052796
6.568000	-0.016175
6.570000	-0.023194
6.572000	-0.020752
6.574000	-0.034791
6.576000	-0.051270
6.578000	-0.027771
6.580000	-0.015869
6.582000	-0.029297
6.584000	-0.019226
6.586000	0.016175
6.588000	0.021973
6.590000	0.015259
6.592000	0.004883
6.594000	0.027161
6.596000	0.033570
6.598000	0.036316
6.600000	0.033875
6.602000	0.095521
6.604000	0.126040
6.606000	0.089113
6.608000	0.092470
6.610000	0.072633
6.612000	0.057069
6.614000	0.063478
6.616000	0.058289
6.618000	0.080873
6.620000	0.079347
6.622000	0.066224
6.624000	0.036622
6.626000	0.009766
6.628000	-0.010071
6.630000	-0.028992
6.632000	-0.064698
6.634000	-0.013428
6.636000	-0.022278
6.638000	-0.047303
6.640000	-0.021973
6.642000	-0.046082
6.644000	-0.054932
6.646000	-0.053407
6.648000	-0.064088
6.650000	-0.104372
6.652000	-0.061952
6.654000	-0.032044
6.656000	-0.065309
6.658000	-0.084840
6.660000	-0.095827
6.662000	-0.049744
6.664000	-0.043946
6.666000	-0.043336
6.668000	-0.045777
6.670000	-0.029603
6.672000	-0.045167
6.674000	-0.069886
6.676000	-0.054322
6.678000	-0.035096
6.680000	-0.015869
6.682000	-0.014954
6.684000	-0.079957
6.686000	-0.078126
6.688000	-0.108644
6.690000	-0.082399
6.692000	-0.071412
6.694000	-0.086976
6.696000	-0.122988
6.698000	-0.144961
6.700000	-0.086061
6.702000	0.110170
6.704000	0.322881
6.706000	0.498054
6.708000	0.636912
6.710000	0.874647
6.712000	1.099565
6.714000	1.031205
6.716000	0.560006
6.718000	0.173037
6.720000	-0.058900
6.722000	-0.144961
6.724000	-0.184939
6.726000	-0.160830
6.728000	-0.094301
6.730000	-0.035706
6.732000	-0.013123
6.734000	-0.028382
6.736000	-0.021363
6.738000	-0.007630
6.740000	-0.041505
6.742000	-0.064088
6.744000	-0.032349
6.746000	-0.026856
6.748000	-0.062257
6.750000	-0.069581
6.752000	-0.047608
6.754000	-0.047303
6.756000	-0.041199
6.758000	-0.035706
6.760000	-0.022583
6.762000	-0.009461
6.764000	-0.036622
6.766000	-0.020447
6.768000	-0.007324
6.770000	0.000916
6.772000	-0.022889
6.774000	-0.027466
6.776000	-0.028992
6.778000	-0.015259
6.780000	-0.013123
6.782000	-0.032654
6.784000	-0.024109
6.786000	-0.003662
6.788000	-0.010376
6.790000	-0.026246
6.792000	-0.034791
6.794000	-0.026551
6.796000	-0.028992
6.798000	-0.025025
6.800000	-0.004578
6.802000	0.001526
6.804000	-0.010987
6.806000	-0.022278
6.808000	-0.012818
6.810000	-0.005188
6.812000	0.003052
6.814000	-0.003967
6.816000	-0.007019
6.818000	-0.028687
6.820000	-0.016175
6.822000	0.001221
6.824000	-0.026246
6.826000	-0.006714
6.828000	0.018921
6.830000	0.018311
6.832000	0.019532
6.834000	0.010376
6.836000	0.036316
6.838000	0.033570
6.840000	0.034485
6.842000	0.073548
6.844000	0.086061
6.846000	0.055238
6.848000	0.067445
6.850000	0.072328
6.852000	0.084535
6.854000	0.107118
6.856000	0.090944
6.858000	0.094911
6.860000	0.099794
6.862000	0.091554
6.864000	0.084535
6.866000	0.044251
6.868000	0.029297
6.870000	0.011902
6.872000	0.004578
6.874000	0.010987
6.876000	0.005798
6.878000	0.020752
6.880000	0.032044
6.882000	0.009766
6.884000	0.005188
6.886000	-0.006104
6.888000	-0.007935
6.890000	-0.017090
6.892000	-0.030823
6.894000	-0.027161
6.896000	-0.006409
6.898000	-0.020142
6.900000	-0.032959
6.902000	-0.030518
6.904000	-0.031434
6.906000	-0.017700
6.908000	-0.019532
6.910000	-0.022278
6.912000	-0.010071
6.914000	-0.016480
6.916000	-0.010071
6.918000	-0.007935
6.920000	0.003357
6.922000	0.032044
6.924000	-0.003662
6.926000	-0.050050
6.928000	-0.025940
6.930000	-0.014038
6.932000	-0.021973
6.934000	-0.017395
6.936000	-0.021668
6.938000	-0.027161
6.940000	-0.003357
6.942000	-0.011597
6.944000	-0.023194
6.946000	-0.010681
6.948000	-0.019837
6.950000	-0.012207
6.952000	-0.020447
6.954000	-0.001831
6.956000	-0.005188
6.958000	-0.023194
6.960000	-0.003357
6.962000	0.006104
6.964000	0.013733
6.966000	0.000305
6.968000	-0.015869
6.970000	-0.028992
6.972000	-0.028077
6.974000	-0.009155
6.976000	-0.003052
6.978000	-0.004273
6.980000	-0.014649
6.982000	-0.014954
6.984000	-0.015259
6.986000	-0.011292
6.988000	0.002747
6.990000	-0.028382
6.992000	-0.031739
6.994000	0.003052
6.996000	0.003357
6.998000	-0.005798
7.000000	0.014343
7.002000	0.026551
7.004000	0.020142
7.006000	0.003052
7.008000	-0.023194
7.010000	-0.014649
7.012000	0.036927
7.014000	0.027771
7.016000	0.030518
7.018000	0.003052
7.020000	-0.011597
7.022000	-0.000305
7.024000	-0.006104
7.026000	-0.008850
7.028000	0.004273
7.030000	0.007019
7.032000	-0.014649
7.034000	-0.021363
7.036000	-0.007324
7.038000	-0.003052
7.040000	-0.001831
7.042000	-0.019226
7.044000	-0.017700
7.046000	0.011902
7.048000	0.031128
7.050000	0.018311
7.052000	0.021057
7.054000	0.029603
7.056000	0.007630
7.058000	0.000610
7.060000	-0.008545
7.062000	0.005798
7.064000	0.023804
7.066000	0.005188
7.068000	0.012207
7.070000	0.037537
7.072000	0.012818
7.074000	-0.002747
7.076000	0.015564
7.078000	0.028382
7.080000	0.033875
7.082000	0.051575
7.084000	0.106508
7.086000	0.143130
7.088000	0.147402
7.090000	0.103456
7.092000	0.086061
7.094000	0.135805
7.096000	0.118105
7.098000	0.078431
7.100000	0.069581
7.102000	0.055543
7.104000	0.027466
7.106000	0.017700
7.108000	0.028382
7.110000	0.010681
7.112000	-0.010987
7.114000	-0.040894
7.116000	-0.049134
7.118000	-0.024414
7.120000	-0.027466
7.122000	-0.047608
7.124000	-0.054322
7.126000	-0.035706
7.128000	-0.023194
7.130000	-0.037232
7.132000	-0.045472
7.134000	-0.045167
7.136000	-0.021973
7.138000	-0.052186
7.140000	-0.073548
7.142000	-0.061036
7.144000	-0.066224
7.146000	-0.047303
7.148000	-0.050050
7.150000	-0.078126
7.152000	-0.045472
7.154000	-0.039063
7.156000	-0.065919
7.158000	-0.076295
7.160000	-0.069581
7.162000	-0.056153
7.164000	-0.018921
7.166000	-0.051270
7.168000	-0.103456
7.170000	-0.140078
7.172000	-0.128481
7.174000	-0.090639
7.176000	0.081788
7.178000	0.291447
7.180000	0.496834
7.182000	0.689403
7.184000	0.925917
7.186000	1.128252
7.188000	0.986648
7.190000	0.500191
7.192000	0.053101
7.194000	-0.139162
7.196000	-0.164797
7.198000	-0.193484
7.200000	-0.145571
7.202000	-0.082704
7.204000	-0.057984
7.206000	-0.039368
7.208000	-0.040589
7.210000	-0.025025
7.212000	-0.029908
7.214000	-0.054627
7.216000	-0.083619
7.218000	-0.057679
7.220000	-0.026856
7.222000	-0.056764
7.224000	-0.065614
7.226000	-0.051270
7.228000	-0.040284
7.230000	-0.041505
7.232000	-0.039979
7.234000	-0.060121
7.236000	-0.037232
7.238000	-0.028382
7.240000	-0.051881
7.242000	-0.059205
7.244000	-0.073548
7.246000	-0.040589
7.248000	-0.018921
7.250000	-0.046387
7.252000	-0.044862
7.254000	-0.030518
7.256000	-0.033570
7.258000	-0.033875
7.260000	-0.022889
7.262000	-0.012512
7.264000	-0.004273
7.266000	-0.011597
7.268000	-0.039063
7.270000	-0.047303
7.272000	-0.036011
7.274000	-0.031739
7.276000	-0.039673
7.278000	-0.050965
7.280000	-0.037537
7.282000	-0.026856
7.284000	-0.024720
7.286000	-0.020142
7.288000	-0.049134
7.290000	-0.056153
7.292000	-0.043946
7.294000	-0.033570
7.296000	-0.022583
7.298000	-0.009461
7.300000	-0.022583
7.302000	-0.006104
7.304000	0.017395
7.306000	0.040589
7.308000	0.030518
7.310000	0.026551
7.312000	0.053407
7.314000	0.025940
7.316000	0.037232
7.318000	0.052491
7.320000	0.050965
7.322000	0.051270
7.324000	0.063783
7.326000	0.086366
7.328000	0.109560
7.330000	0.126345
7.332000	0.096742
7.334000	0.078737
7.336000	0.083619
7.338000	0.056764
7.340000	0.031128
7.342000	0.043336
7.344000	0.025025
7.346000	0.027466
7.348000	0.014038
7.350000	-0.005798
7.352000	-0.016175
7.354000	0.003357
7.356000	0.007019
7.358000	-0.018921
7.360000	-0.018616
7.362000	-0.028992
7.364000	-0.016480
7.366000	-0.021668
7.368000	-0.040284
7.370000	-0.018006
7.372000	0.019837
7.374000	-0.019226
7.376000	-0.044862
7.378000	-0.015259
7.380000	0.007935
7.382000	-0.014343
7.384000	-0.033265
7.386000	-0.003967
7.388000	-0.002747
7.390000	-0.005798
7.392000	-0.021057
7.394000	-0.029908
7.396000	-0.017700
7.398000	-0.036316
7.400000	-0.047303
7.402000	-0.003052
7.404000	0.006409
7.406000	0.009461
7.408000	-0.023804
7.410000	-0.043336
7.412000	-0.011597
7.414000	-0.013123
7.416000	-0.027466
7.418000	-0.038758
7.420000	-0.021973
7.422000	-0.019837
7.424000	-0.028382
7.426000	-0.022583
7.428000	-0.006714
7.430000	-0.016480
7.432000	-0.021973
7.434000	0.010376
7.436000	0.008240
7.438000	0.002747
7.440000	-0.009766
7.442000	-0.027466
7.444000	-0.010681
7.446000	-0.009461
7.448000	-0.006409
7.450000	-0.025025
7.452000	-0.009766
7.454000	0.004883
7.456000	0.000000
7.458000	-0.018921
7.460000	-0.021363
7.462000	-0.015869
7.464000	-0.007630
7.466000	-0.016785
7.468000	-0.012207
7.470000	-0.003052
7.472000	-0.007630
7.474000	0.000000
7.476000	0.002136
7.478000	-0.008240
7.480000	-0.005493
7.482000	0.003967
7.484000	-0.004883
7.486000	-0.018006
7.488000	0.010681
7.490000	0.033265
7.492000	0.007019
7.494000	0.005798
7.496000	0.019532
7.498000	0.011902
7.500000	-0.007324
7.502000	0.001831
7.504000	0.001526
7.506000	0.001526
7.508000	-0.021057
7.510000	-0.043030
7.512000	0.003662
7.514000	0.027161
7.516000	0.008850
7.518000	0.007019
7.520000	0.017090
7.522000	0.030823
7.524000	0.027161
7.526000	0.004883
7.528000	0.053407
7.530000	0.060121
7.532000	0.043641
7.534000	0.021668
7.536000	0.032044
7.538000	0.027161
7.540000	0.028077
7.542000	0.065614
7.544000	0.107118
7.546000	0.126650
7.548000	0.135805
7.550000	0.123293
7.552000	0.122377
7.554000	0.133669
7.556000	0.108949
7.558000	0.075990
7.560000	0.066835
7.562000	0.057069
7.564000	0.057069
7.566000	0.036927
7.568000	0.001221
7.570000	-0.003052
7.572000	0.006409
7.574000	0.007935
7.576000	-0.014649
7.578000	-0.008545
7.580000	-0.031739
7.582000	-0.036316
7.584000	-0.017090
7.586000	0.002441
7.588000	0.010681
7.590000	-0.024720
7.592000	-0.055238
7.594000	-0.038453
7.596000	-0.039979
7.598000	-0.045167
7.600000	-0.046693
7.602000	-0.049744
7.604000	-0.054932
7.606000	-0.047608
7.608000	-0.064088
7.610000	-0.042725
7.612000	-0.036011
7.614000	-0.049134
7.616000	-0.044862
7.618000	-0.084535
7.620000	-0.059510
7.622000	-0.061952
7.624000	-0.071412
7.626000	-0.104677
7.628000	-0.129091
7.630000	-0.079042
7.632000	0.049744
7.634000	0.259709
7.636000	0.459907
7.638000	0.622263
7.640000	0.814527
7.642000	1.075151
7.644000	1.127031
7.646000	0.752270
7.648000	0.285039
7.650000	-0.045472
7.652000	-0.175479
7.654000	-0.185855
7.656000	-0.192569
7.658000	-0.125734
7.660000	-0.057984
7.662000	-0.031739
7.664000	-0.033570
7.666000	-0.018921
7.668000	-0.045472
7.670000	-0.060426
7.672000	-0.046082
7.674000	-0.040894
7.676000	-0.066529
7.678000	-0.011597
7.680000	-0.003967
7.682000	-0.045472
7.684000	-0.028687
7.686000	-0.025330
7.688000	-0.046387
7.690000	-0.049439
7.692000	-0.046998
7.694000	-0.039063
7.696000	-0.038453
7.698000	-0.049134
7.700000	-0.041505
7.702000	-0.029297
7.704000	-0.029297
7.706000	-0.029297
7.708000	-0.043336
7.710000	-0.025635
7.712000	0.010376
7.714000	-0.013428
7.716000	-0.011902
7.718000	-0.009461
7.720000	-0.018006
7.722000	0.012818
7.724000	0.000305
7.726000	-0.033265
7.728000	-0.035401
7.730000	-0.020142
7.732000	-0.013123
7.734000	-0.037842
7.736000	-0.018616
7.738000	-0.007019
7.740000	-0.008545
7.742000	-0.034180
7.744000	-0.036011
7.746000	-0.010376
7.748000	-0.009461
7.750000	-0.037537
7.752000	-0.000305
7.754000	0.028077
7.756000	0.019532
7.758000	0.017395
7.760000	0.008240
7.762000	0.010376
7.764000	0.029603
7.766000	0.031128
7.768000	0.046693
7.770000	0.054932
7.772000	0.050660
7.774000	0.043030
7.776000	0.036927
7.778000	0.069276
7.780000	0.091859
7.782000	0.087892
7.784000	0.075074
7.786000	0.102541
7.788000	0.119020
7.790000	0.085451
7.792000	0.043946
7.794000	0.028382
7.796000	0.015259
7.798000	0.008850
7.800000	-0.011597
7.802000	-0.018311
7.804000	-0.022583
7.806000	-0.038758
7.808000	-0.067140
7.810000	-0.048524
7.812000	-0.040284
7.814000	-0.091249
7.816000	-0.098573
7.818000	-0.089723
7.820000	-0.066529
7.822000	-0.084840
7.824000	-0.112306
7.826000	-0.104067
7.828000	-0.108034
7.830000	-0.117800
7.832000	-0.124514
7.834000	-0.138552
7.836000	-0.117189
7.838000	-0.118105
7.840000	-0.125429
7.842000	-0.144656
7.844000	-0.148318
7.846000	-0.155032
7.848000	-0.149233
7.850000	-0.155337
7.852000	-0.141604
7.854000	-0.132753
7.856000	-0.155642
7.858000	-0.161746
7.860000	-0.179446
7.862000	-0.183413
7.864000	-0.204776
7.866000	-0.208438
7.868000	-0.199588
7.870000	-0.209964
7.872000	-0.224613
7.874000	-0.261845
7.876000	-0.271305
7.878000	-0.264897
7.880000	-0.277104
7.882000	-0.307317
7.884000	-0.332952
7.886000	-0.314641
7.888000	-0.321355
7.890000	-0.352178
7.892000	-0.401007
7.894000	-0.419318
7.896000	-0.451667
7.898000	-0.483406
7.900000	-0.473945
7.902000	-0.474556
7.904000	-0.496529
7.906000	-0.509041
7.908000	-0.564584
7.910000	-0.601205
7.912000	-0.611887
7.914000	-0.667124
7.916000	-0.702525
7.918000	-0.709850
7.920000	-0.724804
7.922000	-0.748302
7.924000	-0.782483
7.926000	-0.831006
7.928000	-0.853895
7.930000	-0.866102
7.932000	-0.881361
7.934000	-0.933547
7.936000	-0.984817
7.938000	-0.980850
7.940000	-1.035172
7.942000	-1.076371
7.944000	-1.088884
7.946000	-1.109026
7.948000	-1.154803
7.950000	-1.199664
7.952000	-1.228962
7.954000	-1.260090
7.956000	-1.280537
7.958000	-1.314717
7.960000	-1.351034
7.962000	-1.357137
7.964000	-1.373007
7.966000	-1.407187
7.968000	-1.439841
7.970000	-1.446555
7.972000	-1.460288
7.974000	-1.492027
7.976000	-1.504234
7.978000	-1.489891
7.980000	-1.499962
7.982000	-1.533837
7.984000	-1.567407
7.986000	-1.583886
7.988000	-1.589685
7.990000	-1.640040
7.992000	-1.635462
7.994000	-1.586023
7.996000	-1.573510
7.998000	-1.596399
8.000000	-1.615015
8.002000	-1.654078
8.004000	-1.669337
8.006000	-1.678187
8.008000	-1.686122
8.010000	-1.693446
8.012000	-1.710231
8.014000	-1.775845
8.016000	-1.819791
8.018000	-1.810025
8.020000	-1.833829
8.022000	-1.884184
8.024000	-1.895476
8.026000	-1.912566
8.028000	-1.903410
8.030000	-1.919585
8.032000	-1.930877
8.034000	-1.951629
8.036000	-1.967498
8.038000	-1.942473
8.040000	-1.927520
8.042000	-1.917754
8.044000	-1.909209
8.046000	-1.943999
8.048000	-1.967193
8.050000	-1.969329
8.052000	-1.967193
8.054000	-1.953765
8.056000	-1.980926
8.058000	-1.972686
8.060000	-1.951324
8.062000	-1.937285
8.064000	-1.943084
8.066000	-1.952850
8.068000	-1.918364
8.070000	-1.914702
8.072000	-1.927214
8.074000	-1.939727
8.076000	-1.931182
8.078000	-1.975128
8.080000	-1.984588
8.082000	-1.918364
8.084000	-1.773404
8.086000	-1.569848
8.088000	-1.381247
8.090000	-1.177386
8.092000	-0.952468
8.094000	-0.704356
8.096000	-0.622568
8.098000	-0.933852
8.100000	-1.432822
8.102000	-1.789578
8.104000	-1.925689
8.106000	-1.943084
8.108000	-1.943084
8.110000	-1.868315
8.112000	-1.798123
8.114000	-1.763943
8.116000	-1.739834
8.118000	-1.716030
8.120000	-1.725795
8.122000	-1.757839
8.124000	-1.774319
8.126000	-1.779507
8.128000	-1.751431
8.130000	-1.736782
8.132000	-1.741970
8.134000	-1.727321
8.136000	-1.727321
8.138000	-1.740139
8.140000	-1.707179
8.142000	-1.665980
8.144000	-1.668421
8.146000	-1.671168
8.148000	-1.688258
8.150000	-1.688258
8.152000	-1.669337
8.154000	-1.642786
8.156000	-1.651026
8.158000	-1.681544
8.160000	-1.674525
8.162000	-1.658961
8.164000	-1.677882
8.166000	-1.664149
8.168000	-1.648890
8.170000	-1.618067
8.172000	-1.606470
8.174000	-1.609216
8.176000	-1.638819
8.178000	-1.634546
8.180000	-1.612268
8.182000	-1.625086
8.184000	-1.626001
8.186000	-1.608606
8.188000	-1.604639
8.190000	-1.611963
8.192000	-1.649805
8.194000	-1.628138
8.196000	-1.595178
8.198000	-1.593652
8.200000	-1.599756
8.202000	-1.626307
8.204000	-1.611963
8.206000	-1.585107
8.208000	-1.576257
8.210000	-1.574121
8.212000	-1.559472
8.214000	-1.522545
8.216000	-1.543603
8.218000	-1.554284
8.220000	-1.523766
8.222000	-1.546960
8.224000	-1.537804
8.226000	-1.526207
8.228000	-1.488365
8.230000	-1.483482
8.232000	-1.480735
8.234000	-1.435264
8.236000	-1.420920
8.238000	-1.422751
8.240000	-1.428244
8.242000	-1.460288
8.244000	-1.463035
8.246000	-1.443198
8.248000	-1.483787
8.250000	-1.502708
8.252000	-1.510338
8.254000	-1.521935
8.256000	-1.509117
8.258000	-1.528954
8.260000	-1.523156
8.262000	-1.511254
8.264000	-1.489281
8.266000	-1.495384
8.268000	-1.496605
8.270000	-1.473716
8.272000	-1.478599
8.274000	-1.480735
8.276000	-1.492332
8.278000	-1.480430
8.280000	-1.473716
8.282000	-1.496910
8.284000	-1.504234
8.286000	-1.469749
8.288000	-1.453269
8.290000	-1.475547
8.292000	-1.472801
8.294000	-1.459678
8.296000	-1.417258
8.298000	-1.400473
8.300000	-1.429465
8.302000	-1.435874
8.304000	-1.408713
8.306000	-1.379721
8.308000	-1.377585
8.310000	-1.385214
8.312000	-1.378500
8.314000	-1.362936
8.316000	-1.362325
8.318000	-1.381247
8.320000	-1.381857
8.322000	-1.396506
8.324000	-1.386130
8.326000	-1.380636
8.328000	-1.355612
8.330000	-1.322042
8.332000	-1.346761
8.334000	-1.352865
8.336000	-1.314717
8.338000	-1.293050
8.340000	-1.283894
8.342000	-1.290913
8.344000	-1.272602
8.346000	-1.275044
8.348000	-1.288472
8.350000	-1.259174
8.352000	-1.265583
8.354000	-1.265278
8.356000	-1.255207
8.358000	-1.250629
8.360000	-1.231708
8.362000	-1.232624
8.364000	-1.220417
8.366000	-1.207904
8.368000	-1.206378
8.370000	-1.212482
8.372000	-1.206989
8.374000	-1.210651
8.376000	-1.177386
8.378000	-1.170367
8.380000	-1.162432
8.382000	-1.189899
8.384000	-1.180438
8.386000	-1.124590
8.388000	-1.124895
8.390000	-1.159380
8.392000	-1.141375
8.394000	-1.137102
8.396000	-1.123064
8.398000	-1.111162
8.400000	-1.086748
8.402000	-1.044022
8.404000	-0.983291
8.406000	-0.995804
8.408000	-1.050126
8.410000	-1.042802
8.412000	-1.023880
8.414000	-1.007706
8.416000	-1.015640
8.418000	-1.045853
8.420000	-1.048295
8.422000	-1.079728
8.424000	-1.119402
8.426000	-1.109026
8.428000	-1.096208
8.430000	-1.134356
8.432000	-1.164874
8.434000	-1.168231
8.436000	-1.166705
8.438000	-1.163348
8.440000	-1.192950
8.442000	-1.232013
8.444000	-1.204242
8.446000	-1.153277
8.448000	-1.173114
8.450000	-1.168231
8.452000	-1.160296
8.454000	-1.165789
8.456000	-1.147173
8.458000	-1.117571
8.460000	-1.113298
8.462000	-1.124590
8.464000	-1.117266
8.466000	-1.108415
8.468000	-1.127337
8.470000	-1.100175
8.472000	-1.060502
8.474000	-1.103227
8.476000	-1.145037
8.478000	-1.133440
8.480000	-1.141070
8.482000	-1.161822
8.484000	-1.140459
8.486000	-1.014115
8.488000	-0.801404
8.490000	-0.621653
8.492000	-0.459907
8.494000	-0.219730
8.496000	0.060121
8.498000	0.200504
8.500000	-0.023804
8.502000	-0.501411
8.504000	-0.961929
8.506000	-1.169451
8.508000	-1.215229
8.510000	-1.226215
8.512000	-1.148089
8.514000	-1.066300
8.516000	-1.049516
8.518000	-1.044022
8.520000	-1.042802
8.522000	-1.030289
8.524000	-1.071183
8.526000	-1.077287
8.528000	-1.051041
8.530000	-1.043107
8.532000	-1.040665
8.534000	-1.019913
8.536000	-0.994888
8.538000	-1.016556
8.540000	-1.005875
8.542000	-1.004959
8.544000	-1.006790
8.546000	-0.994888
8.548000	-0.980850
8.550000	-0.993973
8.552000	-0.971389
8.554000	-0.961318
8.556000	-0.980545
8.558000	-0.998550
8.560000	-0.975967
8.562000	-0.924697
8.564000	-0.927138
8.566000	-0.938735
8.568000	-0.954299
8.570000	-0.937209
8.572000	-0.899977
8.574000	-0.934157
8.576000	-0.950332
8.578000	-0.899672
8.580000	-0.892958
8.582000	-0.921340
8.584000	-0.916762
8.586000	-0.877089
8.588000	-0.852064
8.590000	-0.859388
8.592000	-0.892348
8.594000	-0.866712
8.596000	-0.820935
8.598000	-0.824903
8.600000	-0.838636
8.602000	-0.838941
8.604000	-0.831312
8.606000	-0.796216
8.608000	-0.786755
8.610000	-0.767529
8.612000	-0.750134
8.614000	-0.754406
8.616000	-0.722362
8.618000	-0.694591
8.620000	-0.696422
8.622000	-0.700694
8.624000	-0.692149
8.626000	-0.682994
8.628000	-0.655222
8.630000	-0.642100
8.632000	-0.626230
8.634000	-0.583810
8.636000	-0.552071
8.638000	-0.521859
8.640000	-0.520333
8.642000	-0.556954
8.644000	-0.526436
8.646000	-0.511788
8.648000	-0.557565
8.650000	-0.581064
8.652000	-0.580453
8.654000	-0.541695
8.656000	-0.537728
8.658000	-0.539254
8.660000	-0.525521
8.662000	-0.520943
8.664000	-0.511482
8.666000	-0.485847
8.668000	-0.474861
8.670000	-0.497444
8.672000	-0.486763
8.674000	-0.479438
8.676000	-0.470893
8.678000	-0.451667
8.680000	-0.445869
8.682000	-0.431525
8.684000	-0.433967
8.686000	-0.427253
8.688000	-0.428473
8.690000	-0.415045
8.692000	-0.410163
8.694000	-0.406806
8.696000	-0.380255
8.698000	-0.395819
8.700000	-0.393072
8.702000	-0.392157
8.704000	-0.362249
8.706000	-0.358282
8.708000	-0.358587
8.710000	-0.330816
8.712000	-0.310063
8.714000	-0.309453
8.716000	-0.323491
8.718000	-0.325322
8.720000	-0.299382
8.722000	-0.321050
8.724000	-0.291753
8.726000	-0.265507
8.728000	-0.265507
8.730000	-0.253300
8.732000	-0.241093
8.734000	-0.240177
8.736000	-0.231022
8.738000	-0.233463
8.740000	-0.216678
8.742000	-0.208133
8.744000	-0.210269
8.746000	-0.182498
8.748000	-0.180056
8.750000	-0.155642
8.752000	-0.135500
8.754000	-0.151369
8.756000	-0.159304
8.758000	-0.147097
8.760000	-0.098573
8.762000	-0.108034
8.764000	-0.110781
8.766000	-0.117494
8.768000	-0.061341
8.770000	-0.050050
8.772000	-0.049744
8.774000	-0.036927
8.776000	-0.047608
8.778000	0.002136
8.780000	0.042115
8.782000	0.004883
8.784000	0.015259
8.786000	0.052796
8.788000	0.062257
8.790000	0.070497
8.792000	0.086366
8.794000	0.097353
8.796000	0.109255
8.798000	0.110170
8.800000	0.148623
8.802000	0.167849
8.804000	0.198672
8.806000	0.239567
8.808000	0.232853
8.810000	0.239261
8.812000	0.255436
8.814000	0.277104
8.816000	0.268864
8.818000	0.259098
8.820000	0.243839
8.822000	0.248112
8.824000	0.251163
8.826000	0.196231
8.828000	0.205692
8.830000	0.236820
8.832000	0.227970
8.834000	0.201114
8.836000	0.199588
8.838000	0.208743
8.840000	0.202945
8.842000	0.193484
8.844000	0.228275
8.846000	0.231327
8.848000	0.207218
8.850000	0.207218
8.852000	0.225223
8.854000	0.242008
8.856000	0.239261
8.858000	0.221561
8.860000	0.228580
8.862000	0.275273
8.864000	0.296330
8.866000	0.271611
8.868000	0.270085
8.870000	0.285344
8.872000	0.281071
8.874000	0.278019
8.876000	0.290227
8.878000	0.302739
8.880000	0.317693
8.882000	0.276188
8.884000	0.240177
8.886000	0.206302
8.888000	0.223392
8.890000	0.369574
8.892000	0.563363
8.894000	0.757153
8.896000	0.957351
8.898000	1.140154
8.900000	1.373007
8.902000	1.578393
8.904000	1.491722
8.906000	1.045548
8.908000	0.592050
8.910000	0.314641
8.912000	0.239261
8.914000	0.231937
8.916000	0.263981
8.918000	0.304875
8.920000	0.336004
8.922000	0.361639
8.924000	0.369574
8.926000	0.365911
8.928000	0.364385
8.930000	0.377203
8.932000	0.377203
8.934000	0.377508
8.936000	0.375982
8.938000	0.372015
8.940000	0.376593
8.942000	0.365911
8.944000	0.386664
8.946000	0.402533
8.948000	0.392767
8.950000	0.400397
8.952000	0.403449
8.954000	0.413825
8.956000	0.410773
8.958000	0.409247
8.960000	0.412299
8.962000	0.416876
8.964000	0.437629
8.966000	0.437629
8.968000	0.416876
8.970000	0.409247
8.972000	0.413519
8.974000	0.399481
8.976000	0.401007
8.978000	0.424201
8.980000	0.443122
8.982000	0.437934
8.984000	0.432136
8.986000	0.434272
8.988000	0.461738
8.990000	0.472724
8.992000	0.433967
8.994000	0.430915
8.996000	0.450141
8.998000	0.447089
9.000000	0.456550
9.002000	0.452888
9.004000	0.456550
9.006000	0.443427
9.008000	0.411688
9.010000	0.427253
9.012000	0.465400
9.014000	0.464790
9.016000	0.472724
9.018000	0.468757
9.020000	0.489204
9.022000	0.479744
9.024000	0.482490
9.026000	0.505989
9.028000	0.513924
9.030000	0.510872
9.032000	0.506905
9.034000	0.533761
9.036000	0.567025
9.038000	0.593576
9.040000	0.604257
9.042000	0.600900
9.044000	0.589914
9.046000	0.615854
9.048000	0.583200
9.050000	0.560006
9.052000	0.533761
9.054000	0.526436
9.056000	0.522164
9.058000	0.493477
9.060000	0.488899
9.062000	0.465400
9.064000	0.468452
9.066000	0.451972
9.068000	0.455329
9.070000	0.483711
9.072000	0.482185
9.074000	0.460212
9.076000	0.474250
9.078000	0.471504
9.080000	0.474556
9.082000	0.463874
9.084000	0.457771
9.086000	0.469368
9.088000	0.459297
9.090000	0.437018
9.092000	0.444343
9.094000	0.453498
9.096000	0.440070
9.098000	0.450141
9.100000	0.447395
9.102000	0.451972
9.104000	0.460517
9.106000	0.455940
9.108000	0.437018
9.110000	0.449836
9.112000	0.455024
9.114000	0.465705
9.116000	0.434577
9.118000	0.426947
9.120000	0.454414
9.122000	0.416876
9.124000	0.399786
9.126000	0.427558
9.128000	0.462959
9.130000	0.458076
9.132000	0.446479
9.134000	0.421149
9.136000	0.411994
9.138000	0.423896
9.140000	0.422370
9.142000	0.421759
9.144000	0.430610
9.146000	0.440681
9.148000	0.429999
9.150000	0.419623
9.152000	0.422675
9.154000	0.425727
9.156000	0.417487
9.158000	0.403449
9.160000	0.403449
9.162000	0.403143
9.164000	0.404974
9.166000	0.414130
9.168000	0.389410
9.170000	0.375067
9.172000	0.393378
9.174000	0.385443
9.176000	0.404974
9.178000	0.404364
9.180000	0.365911
9.182000	0.349737
9.184000	0.340887
9.186000	0.341802
9.188000	0.357671
9.190000	0.364385
9.192000	0.350347
9.194000	0.341802
9.196000	0.339971
9.198000	0.316472
9.200000	0.326848
9.202000	0.339971
9.204000	0.353399
9.206000	0.352178
9.208000	0.371099
9.210000	0.348516
9.212000	0.344244
9.214000	0.349737
9.216000	0.345769
9.218000	0.346990
9.220000	0.369268
9.222000	0.395819
9.224000	0.394598
9.226000	0.399481
9.228000	0.424506
9.230000	0.428473
9.232000	0.389105
9.234000	0.383612
9.236000	0.398260
9.238000	0.397650
9.240000	0.359808
9.242000	0.317388
9.244000	0.334783
9.246000	0.361639
9.248000	0.284733
9.250000	0.252689
9.252000	0.243229
9.254000	0.246586
9.256000	0.252689
9.258000	0.237125
9.260000	0.233463
9.262000	0.264897
9.264000	0.257267
9.266000	0.237125
9.268000	0.233463
9.270000	0.247196
9.272000	0.250553
9.274000	0.245365
9.276000	0.238956
9.278000	0.263066
9.280000	0.266728
9.282000	0.268254
9.284000	0.270390
9.286000	0.278019
9.288000	0.304570
9.290000	0.258793
9.292000	0.214847
9.294000	0.221256
9.296000	0.209049
9.298000	0.172122
9.300000	0.147097
9.302000	0.126650
9.304000	0.115053
9.306000	0.107118
9.308000	0.065309
9.310000	0.040284
9.312000	0.008545
9.314000	-0.013733
9.316000	0.020447
9.318000	0.205997
9.320000	0.414130
9.322000	0.602731
9.324000	0.798657
9.326000	1.029374
9.328000	1.278401
9.330000	1.330892
9.332000	0.976883
9.334000	0.503243
9.336000	0.163272
9.338000	0.014954
9.340000	-0.011597
9.342000	-0.006714
9.344000	0.046693
9.346000	0.108339
9.348000	0.140383
9.350000	0.147402
9.352000	0.151064
9.354000	0.153201
9.356000	0.155032
9.358000	0.146487
9.360000	0.163272
9.362000	0.163577
9.364000	0.163272
9.366000	0.162966
9.368000	0.162356
9.370000	0.169375
9.372000	0.178836
9.374000	0.195315
9.376000	0.181582
9.378000	0.200809
9.380000	0.202335
9.382000	0.181582
9.384000	0.196536
9.386000	0.205997
9.388000	0.216983
9.390000	0.217899
9.392000	0.214237
9.394000	0.235294
9.396000	0.245975
9.398000	0.246891
9.400000	0.255436
9.402000	0.267948
9.404000	0.259403
9.406000	0.261540
9.408000	0.254520
9.410000	0.244450
9.412000	0.275273
9.414000	0.263066
9.416000	0.247807
9.418000	0.256352
9.420000	0.270695
9.422000	0.254826
9.424000	0.247196
9.426000	0.248112
9.428000	0.256657
9.430000	0.279545
9.432000	0.272526
9.434000	0.272221
9.436000	0.287175
9.438000	0.290227
9.440000	0.296635
9.442000	0.317082
9.444000	0.324407
9.446000	0.335088
9.448000	0.356146
9.450000	0.361944
9.452000	0.357061
9.454000	0.359503
9.456000	0.350347
9.458000	0.348211
9.460000	0.377203
9.462000	0.423590
9.464000	0.446174
9.466000	0.426947
9.468000	0.432746
9.470000	0.467231
9.472000	0.455329
9.474000	0.436103
9.476000	0.445258
9.478000	0.440986
9.480000	0.413214
9.482000	0.363470
9.484000	0.380865
9.486000	0.352789
9.488000	0.344549
9.490000	0.334783
9.492000	0.321660
9.494000	0.329290
9.496000	0.350347
9.498000	0.331731
9.500000	0.331731
9.502000	0.344244
9.504000	0.332036
9.506000	0.336614
9.508000	0.298772
9.510000	0.296941
9.512000	0.338750
9.514000	0.330510
9.516000	0.314336
9.518000	0.308537
9.520000	0.318914
9.522000	0.330510
9.524000	0.325933
9.526000	0.325017
9.528000	0.342107
9.530000	0.346075
9.532000	0.325628
9.534000	0.312200
9.536000	0.309758
9.538000	0.355840
9.540000	0.335088
9.542000	0.316167
9.544000	0.346990
9.546000	0.335088
9.548000	0.344244
9.550000	0.343633
9.552000	0.338445
9.554000	0.334478
9.556000	0.331426
9.558000	0.336004
9.560000	0.343938
9.562000	0.337835
9.564000	0.327153
9.566000	0.318303
9.568000	0.321660
9.570000	0.344854
9.572000	0.332952
9.574000	0.341192
9.576000	0.343633
9.578000	0.344244
9.580000	0.361639
9.582000	0.363775
9.584000	0.331121
9.586000	0.318303
9.588000	0.346685
9.590000	0.352483
9.592000	0.336614
9.594000	0.313420
9.596000	0.337224
9.598000	0.354620
9.600000	0.343328
9.602000	0.348821
9.604000	0.354620
9.606000	0.341192
9.608000	0.342718
9.610000	0.339666
9.612000	0.355535
9.614000	0.361639
9.616000	0.363775
9.618000	0.361334
9.620000	0.363470
9.622000	0.367437
9.624000	0.338445
9.626000	0.358892
9.628000	0.368353
9.630000	0.381781
9.632000	0.371710
9.634000	0.338140
9.636000	0.343633
9.638000	0.357366
9.640000	0.361028
9.642000	0.351568
9.644000	0.353704
9.646000	0.373236
9.648000	0.370184
9.650000	0.357366
9.652000	0.350042
9.654000	0.350652
9.656000	0.349737
9.658000	0.359808
9.660000	0.380255
9.662000	0.375982
9.664000	0.370794
9.666000	0.362249
9.668000	0.361639
9.670000	0.395819
9.672000	0.378424
9.674000	0.348211
9.676000	0.346990
9.678000	0.345464
9.680000	0.348516
9.682000	0.365911
9.684000	0.354009
9.686000	0.355840
9.688000	0.365301
9.690000	0.337530
9.692000	0.329595
9.694000	0.347295
9.696000	0.366522
9.698000	0.357061
9.700000	0.334173
9.702000	0.343633
9.704000	0.352483
9.706000	0.350957
9.708000	0.343328
9.710000	0.361639
9.712000	0.393988
9.714000	0.379034
9.716000	0.352789
9.718000	0.352178
9.720000	0.372931
9.722000	0.382086
9.724000	0.383307
9.726000	0.377508
9.728000	0.371099
9.730000	0.383917
9.732000	0.350042
9.734000	0.327153
9.736000	0.341192
9.738000	0.348211
9.740000	0.356146
9.742000	0.346990
9.744000	0.358587
9.746000	0.372320
9.748000	0.369879
9.750000	0.361334
9.752000	0.345769
9.754000	0.357671
9.756000	0.378424
9.758000	0.358587
9.760000	0.347906
9.762000	0.357671
9.764000	0.347906
9.766000	0.372625
9.768000	0.365911
9.770000	0.348821
9.772000	0.361639
9.774000	0.350652
9.776000	0.360418
9.778000	0.379034
9.780000	0.412604
9.782000	0.391852
9.784000	0.365911
9.786000	0.362860
9.788000	0.369268
9.790000	0.350652
9.792000	0.360113
9.794000	0.414740
9.796000	0.478523
9.798000	0.468757
9.800000	0.452583
9.802000	0.459907
9.804000	0.444648
9.806000	0.439460
9.808000	0.445258
9.810000	0.432441
9.812000	0.428168
9.814000	0.426947
9.816000	0.405280
9.818000	0.401923
9.820000	0.374762
9.822000	0.351568
9.824000	0.336614
9.826000	0.327459
9.828000	0.324712
9.830000	0.321355
9.832000	0.290837
9.834000	0.287785
9.836000	0.307317
9.838000	0.310063
9.840000	0.291447
9.842000	0.282292
9.844000	0.301823
9.846000	0.307317
9.848000	0.297246
9.850000	0.287175
9.852000	0.296941
9.854000	0.290227
9.856000	0.285039
9.858000	0.265202
9.860000	0.258488
9.862000	0.272831
9.864000	0.284123
9.866000	0.282292
9.868000	0.303960
9.870000	0.314946
9.872000	0.299382
9.874000	0.279850
9.876000	0.276799
9.878000	0.291753
9.880000	0.274052
9.882000	0.235294
9.884000	0.180667
9.886000	0.214847
9.888000	0.362554
9.890000	0.556344
9.892000	0.754101
9.894000	0.925917
9.896000	1.151446
9.898000	1.392844
9.900000	1.512474
9.902000	1.245441
9.904000	0.762646
9.906000	0.363775
9.908000	0.183413
9.910000	0.151064
9.912000	0.173953
9.914000	0.218204
9.916000	0.264591
9.918000	0.286259
9.920000	0.297551
9.922000	0.290227
9.924000	0.282292
9.926000	0.299687
9.928000	0.299687
9.930000	0.271000
9.932000	0.241703
9.934000	0.248417
9.936000	0.277714
9.938000	0.269780
9.940000	0.250858
9.942000	0.247196
9.944000	0.280461
9.946000	0.310063
9.948000	0.291753
9.950000	0.276493
9.952000	0.285344
9.954000	0.271000
9.956000	0.254826
9.958000	0.287175
9.960000	0.265812
9.962000	0.280156
9.964000	0.295415
9.966000	0.289311
9.968000	0.270085
9.970000	0.281987
9.972000	0.274052
9.974000	0.272526
9.976000	0.279850
9.978000	0.264897
9.980000	0.271000
9.982000	0.277104
9.984000	0.271000
9.986000	0.267033
9.988000	0.289921
9.990000	0.282597
9.992000	0.252384
9.994000	0.257267
9.996000	0.272221
9.998000	0.276493
10.000000	0.258183
10.002000	0.274662
10.004000	0.318303
10.006000	0.329290
10.008000	0.266423
10.010000	0.267643
10.012000	0.278019
10.014000	0.299077
10.016000	0.299687
10.018000	0.306401
10.020000	0.308843
10.022000	0.314641
10.024000	0.340887
10.026000	0.361944
10.028000	0.365301
10.030000	0.337224
10.032000	0.327459
10.034000	0.337530
10.036000	0.363165
10.038000	0.382391
10.040000	0.376898
10.042000	0.385138
10.044000	0.411383
10.046000	0.430915
10.048000	0.429999
10.050000	0.406195
10.052000	0.379034
10.054000	0.382086
10.056000	0.375982
10.058000	0.338750
10.060000	0.314031
10.062000	0.308843
10.064000	0.287785
10.066000	0.280766
10.068000	0.271000
10.070000	0.274357
10.072000	0.277104
10.074000	0.270390
10.076000	0.252384
10.078000	0.258488
10.080000	0.263371
10.082000	0.263371
10.084000	0.259709
10.086000	0.267643
10.088000	0.286870
10.090000	0.267948
10.092000	0.225528
10.094000	0.246586
10.096000	0.275578
10.098000	0.274968
10.100000	0.251163
10.102000	0.245060
10.104000	0.273442
10.106000	0.269474
10.108000	0.251469
10.110000	0.245975
10.112000	0.257572
10.114000	0.269169
10.116000	0.239261
10.118000	0.240177
10.120000	0.257877
10.122000	0.249943
10.124000	0.242618
10.126000	0.240787
10.128000	0.262455
10.130000	0.262150
10.132000	0.255436
10.134000	0.253910
10.136000	0.259403
10.138000	0.260014
10.140000	0.232242
10.142000	0.234379
10.144000	0.252689
10.146000	0.265812
10.148000	0.248112
10.150000	0.275578
10.152000	0.277104
10.154000	0.266728
10.156000	0.257877
10.158000	0.248417
10.160000	0.247807
10.162000	0.271916
10.164000	0.280461
10.166000	0.260014
10.168000	0.253910
10.170000	0.260624
10.172000	0.274662
10.174000	0.246586
10.176000	0.239872
10.178000	0.260014
10.180000	0.254826
10.182000	0.247807
10.184000	0.258793
10.186000	0.268254
10.188000	0.276188
10.190000	0.274662
10.192000	0.265507
10.194000	0.258793
10.196000	0.260624
10.198000	0.259403
10.200000	0.231022
10.202000	0.251163
10.204000	0.255436
10.206000	0.267948
10.208000	0.249027
10.210000	0.232853
10.212000	0.253910
10.214000	0.256046
10.216000	0.233463
10.218000	0.242618
10.220000	0.252995
10.222000	0.243229
10.224000	0.240482
10.226000	0.246891
10.228000	0.250858
10.230000	0.238346
10.232000	0.238956
10.234000	0.255436
10.236000	0.271000
10.238000	0.267643
10.240000	0.234379
10.242000	0.233463
10.244000	0.263371
10.246000	0.269169
10.248000	0.236515
10.250000	0.245365
10.252000	0.258488
10.254000	0.261845
10.256000	0.258488
10.258000	0.256046
10.260000	0.243229
10.262000	0.245975
10.264000	0.249943
10.266000	0.236210
10.268000	0.242924
10.270000	0.258183
10.272000	0.265202
10.274000	0.278935
10.276000	0.277714
10.278000	0.268864
10.280000	0.268254
10.282000	0.245975
10.284000	0.216068
10.286000	0.250248
10.288000	0.262760
10.290000	0.254215
10.292000	0.273442
10.294000	0.281987
10.296000	0.254520
10.298000	0.245670
10.300000	0.252689
10.302000	0.252995
10.304000	0.249027
10.306000	0.237125
10.308000	0.214237
10.310000	0.224002
10.312000	0.239261
10.314000	0.238956
10.316000	0.238651
10.318000	0.233158
10.320000	0.255131
10.322000	0.246891
10.324000	0.220645
10.326000	0.236210
10.328000	0.255741
10.330000	0.272221
10.332000	0.235904
10.334000	0.230716
10.336000	0.268559
10.338000	0.246281
10.340000	0.226444
10.342000	0.240482
10.344000	0.244755
10.346000	0.255741
10.348000	0.229801
10.350000	0.229496
10.352000	0.230411
10.354000	0.216983
10.356000	0.231937
10.358000	0.246586
10.360000	0.250248
10.362000	0.246281
10.364000	0.244755
10.366000	0.240787
10.368000	0.243534
10.370000	0.246281
10.372000	0.251163
10.374000	0.243229
10.376000	0.236820
10.378000	0.251469
10.380000	0.257572
10.382000	0.250553
10.384000	0.245670
10.386000	0.262760
10.388000	0.301823
10.390000	0.331426
10.392000	0.328069
10.394000	0.352789
10.396000	0.341497
10.398000	0.341802
10.400000	0.345159
10.402000	0.355230
10.404000	0.325322
10.406000	0.293278
10.408000	0.264591
10.410000	0.246891
10.412000	0.260014
10.414000	0.253300
10.416000	0.219730
10.418000	0.191959
10.420000	0.187686
10.422000	0.194400
10.424000	0.206302
10.426000	0.184634
10.428000	0.164797
10.430000	0.163577
10.432000	0.159304
10.434000	0.168460
10.436000	0.166323
10.438000	0.186465
10.440000	0.190738
10.442000	0.167239
10.444000	0.152895
10.446000	0.156558
10.448000	0.167544
10.450000	0.170596
10.452000	0.157473
10.454000	0.148928
10.456000	0.153201
10.458000	0.146487
10.460000	0.161135
10.462000	0.184329
10.464000	0.152590
10.466000	0.147097
10.468000	0.178225
10.470000	0.178531
10.472000	0.170596
10.474000	0.094606
10.476000	0.053712
10.478000	0.117189
10.480000	0.311284
10.482000	0.513008
10.484000	0.690318
10.486000	0.862135
10.488000	1.087663
10.490000	1.325704
10.492000	1.374533
10.494000	1.064775
10.496000	0.590524
10.498000	0.207828
10.500000	0.043641
10.502000	0.019226
10.504000	0.042725
10.506000	0.078126
10.508000	0.124208
10.510000	0.147097
10.512000	0.174868
10.514000	0.198978
10.516000	0.165103
10.518000	0.147402
10.520000	0.147707
10.522000	0.140993
10.524000	0.139162
10.526000	0.136416
10.528000	0.173037
10.530000	0.172732
10.532000	0.144045
10.534000	0.138247
10.536000	0.149844
10.538000	0.159304
10.540000	0.152285
10.542000	0.148928
10.544000	0.152590
10.546000	0.181888
10.548000	0.188296
10.550000	0.167239
10.552000	0.169070
10.554000	0.190127
10.556000	0.184939
10.558000	0.169070
10.560000	0.168765
10.562000	0.174868
10.564000	0.177920
10.566000	0.147707
10.568000	0.147097
10.570000	0.175174
10.572000	0.196841
10.574000	0.183108
10.576000	0.159609
10.578000	0.178836
10.580000	0.191959
10.582000	0.190738
10.584000	0.173648
10.586000	0.181582
10.588000	0.177920
10.590000	0.152285
10.592000	0.147402
10.594000	0.158694
10.596000	0.196231
10.598000	0.198978
10.600000	0.173037
10.602000	0.168154
10.604000	0.186465
10.606000	0.188602
10.608000	0.177615
10.610000	0.197757
10.612000	0.203555
10.614000	0.206607
10.616000	0.218204
10.618000	0.215457
10.620000	0.229801
10.622000	0.229191
10.624000	0.221866
10.626000	0.225223
10.628000	0.252995
10.630000	0.281071
10.632000	0.263066
10.634000	0.280461
10.636000	0.313420
10.638000	0.348821
10.640000	0.348821
10.642000	0.347295
10.644000	0.322271
10.646000	0.275578
10.648000	0.211795
10.650000	0.217288
10.652000	0.217899
10.654000	0.211795
10.656000	0.208133
10.658000	0.177310
10.660000	0.166629
10.662000	0.158389
10.664000	0.168460
10.666000	0.152895
10.668000	0.158694
10.670000	0.183108
10.672000	0.194095
10.674000	0.170596
10.676000	0.136721
10.678000	0.187076
10.680000	0.193179
10.682000	0.177310
10.684000	0.191348
10.686000	0.174258
10.688000	0.146792
10.690000	0.153506
10.692000	0.168154
10.694000	0.173342
10.696000	0.178836
10.698000	0.157473
10.700000	0.135805
10.702000	0.152895
10.704000	0.165713
10.706000	0.157473
10.708000	0.154116
10.710000	0.147402
10.712000	0.170901
10.714000	0.200809
10.716000	0.187686
10.718000	0.171206
10.720000	0.184024
10.722000	0.163272
10.724000	0.138247
10.726000	0.158389
10.728000	0.182498
10.730000	0.187381
10.732000	0.146792
10.734000	0.122377
10.736000	0.120546
10.738000	0.167239
10.740000	0.189517
10.742000	0.146792
10.744000	0.157473
10.746000	0.189517
10.748000	0.178225
10.750000	0.165713
10.752000	0.197452
10.754000	0.188907
10.756000	0.172122
10.758000	0.175479
10.760000	0.195621
10.762000	0.177615
10.764000	0.169986
10.766000	0.172427
10.768000	0.153811
10.770000	0.169986
10.772000	0.184024
10.774000	0.160525
10.776000	0.144656
10.778000	0.173953
10.780000	0.209354
10.782000	0.193484
10.784000	0.178531
10.786000	0.173648
10.788000	0.164492
10.790000	0.130617
10.792000	0.142214
10.794000	0.179141
10.796000	0.177310
10.798000	0.186160
10.800000	0.166629
10.802000	0.163577
10.804000	0.174868
10.806000	0.178836
10.808000	0.231327
10.810000	0.208438
10.812000	0.168765
10.814000	0.184329
10.816000	0.180056
10.818000	0.153201
10.820000	0.169070
10.822000	0.167239
10.824000	0.154116
10.826000	0.169375
10.828000	0.213016
10.830000	0.198672
10.832000	0.175784
10.834000	0.159304
10.836000	0.155032
10.838000	0.152895
10.840000	0.166934
10.842000	0.156252
10.844000	0.169680
10.846000	0.208438
10.848000	0.222171
10.850000	0.235599
10.852000	0.198672
10.854000	0.214237
10.856000	0.195315
10.858000	0.183719
10.860000	0.203555
10.862000	0.193179
10.864000	0.215457
10.866000	0.217288
10.868000	0.250858
10.870000	0.293278
10.872000	0.293889
10.874000	0.289006
10.876000	0.278325
10.878000	0.251469
10.880000	0.248417
10.882000	0.258183
10.884000	0.259403
10.886000	0.248112
10.888000	0.222171
10.890000	0.213321
10.892000	0.229801
10.894000	0.177310
10.896000	0.148928
10.898000	0.167544
10.900000	0.170596
10.902000	0.152285
10.904000	0.139162
10.906000	0.131228
10.908000	0.115969
10.910000	0.119326
10.912000	0.133669
10.914000	0.131838
10.916000	0.108034
10.918000	0.117800
10.920000	0.128176
10.922000	0.106508
10.924000	0.113832
10.926000	0.142214
10.928000	0.167544
10.930000	0.154116
10.932000	0.135500
10.934000	0.124208
10.936000	0.099794
10.938000	0.118105
10.940000	0.161135
10.942000	0.149844
10.944000	0.130922
10.946000	0.147707
10.948000	0.146487
10.950000	0.120241
10.952000	0.104067
10.954000	0.087587
10.956000	0.150149
10.958000	0.326543
10.960000	0.547494
10.962000	0.742199
10.964000	0.886854
10.966000	1.092546
10.968000	1.348592
10.970000	1.348898
10.972000	0.952773
10.974000	0.466011
10.976000	0.085451
10.978000	-0.005188
10.980000	0.007019
10.982000	-0.000916
10.984000	0.057374
10.986000	0.107729
10.988000	0.134585
10.990000	0.151064
10.992000	0.120241
10.994000	0.109865
10.996000	0.120546
10.998000	0.114443
11.000000	0.110781
11.002000	0.109560
11.004000	0.107424
11.006000	0.088808
11.008000	0.093385
11.010000	0.102541
11.012000	0.143740
11.014000	0.138552
11.016000	0.108034
11.018000	0.103151
11.020000	0.134585
11.022000	0.140383
11.024000	0.107729
11.026000	0.113222
11.028000	0.115663
11.030000	0.123293
11.032000	0.134279
11.034000	0.128481
11.036000	0.129702
11.038000	0.137331
11.040000	0.092164
11.042000	0.074464
11.044000	0.128176
11.046000	0.137636
11.048000	0.132753
11.050000	0.113222
11.052000	0.124819
11.054000	0.128786
11.056000	0.119326
11.058000	0.122683
11.060000	0.148013
11.062000	0.163882
11.064000	0.130922
11.066000	0.126040
11.068000	0.130007
11.070000	0.122988
11.072000	0.128481
11.074000	0.126040
11.076000	0.099794
11.078000	0.110475
11.080000	0.113527
11.082000	0.133059
11.084000	0.126040
11.086000	0.179446
11.088000	0.196231
11.090000	0.169375
11.092000	0.169986
11.094000	0.170596
11.096000	0.154116
11.098000	0.183719
11.100000	0.209659
11.102000	0.233463
11.104000	0.241093
11.106000	0.261845
11.108000	0.263371
11.110000	0.264286
11.112000	0.282902
11.114000	0.274662
11.116000	0.254215
11.118000	0.232853
11.120000	0.215457
11.122000	0.215152
11.124000	0.198672
11.126000	0.186160
11.128000	0.159609
11.130000	0.167239
11.132000	0.164492
11.134000	0.133669
11.136000	0.174563
11.138000	0.200198
11.140000	0.164797
11.142000	0.131533
11.144000	0.116274
11.146000	0.126345
11.148000	0.143740
11.150000	0.137026
11.152000	0.159304
11.154000	0.122683
11.156000	0.119020
11.158000	0.130617
11.160000	0.122377
11.162000	0.137636
11.164000	0.131533
11.166000	0.126040
11.168000	0.138857
11.170000	0.127260
11.172000	0.119326
11.174000	0.117189
11.176000	0.110475
11.178000	0.119326
11.180000	0.141909
11.182000	0.132448
11.184000	0.091859
11.186000	0.111391
11.188000	0.129091
11.190000	0.123598
11.192000	0.145571
11.194000	0.122683
11.196000	0.140078
11.198000	0.142824
11.200000	0.146181
11.202000	0.122072
11.204000	0.097658
11.206000	0.112612
11.208000	0.105287
11.210000	0.131838
11.212000	0.187991
11.214000	0.146181
11.216000	0.120241
11.218000	0.153506
11.220000	0.105898
11.222000	0.085145
11.224000	0.125734
11.226000	0.145266
11.228000	0.142519
11.230000	0.153506
11.232000	0.096437
11.234000	0.108339
11.236000	0.135500
11.238000	0.123903
11.240000	0.108644
11.242000	0.107424
11.244000	0.118410
11.246000	0.154116
11.248000	0.177005
11.250000	0.163882
11.252000	0.151369
11.254000	0.159304
11.256000	0.163577
11.258000	0.124819
11.260000	0.119020
11.262000	0.136416
11.264000	0.168154
11.266000	0.212711
11.268000	0.232853
11.270000	0.226139
11.272000	0.246891
11.274000	0.260929
11.276000	0.220645
11.278000	0.198672
11.280000	0.240177
11.282000	0.250858
11.284000	0.195621
11.286000	0.194095
11.288000	0.214237
11.290000	0.206912
11.292000	0.138857
11.294000	0.121157
11.296000	0.124208
11.298000	0.128786
11.300000	0.151064
11.302000	0.135500
11.304000	0.133974
11.306000	0.119020
11.308000	0.072938
11.310000	0.061036
11.312000	0.059510
11.314000	0.110170
11.316000	0.104067
11.318000	0.060731
11.320000	0.079957
11.322000	0.087587
11.324000	0.055238
11.326000	0.080568
11.328000	0.092470
11.330000	0.105592
11.332000	0.082094
11.334000	0.077211
11.336000	0.148013
11.338000	0.115053
11.340000	0.055848
11.342000	0.079957
11.344000	0.104982
11.346000	0.128176
11.348000	0.078737
11.350000	0.012818
11.352000	0.008545
11.354000	0.146792
11.356000	0.332952
11.358000	0.469368
11.360000	0.715038
11.362000	0.929885
11.364000	1.106584
11.366000	1.290913
11.368000	1.305867
11.370000	0.978714
11.372000	0.482490
11.374000	0.080873
11.376000	-0.065309
11.378000	-0.048524
11.380000	-0.030213
11.382000	0.032044
11.384000	0.080262
11.386000	0.093690
11.388000	0.111696
11.390000	0.098268
11.392000	0.104982
11.394000	0.085451
11.396000	0.075074
11.398000	0.089113
11.400000	0.080568
11.402000	0.076905
11.404000	0.080262
11.406000	0.096437
11.408000	0.068666
11.410000	0.102235
11.412000	0.132753
11.414000	0.107729
11.416000	0.106203
11.418000	0.056764
11.420000	0.062562
11.422000	0.104677
11.424000	0.072938
11.426000	0.053712
11.428000	0.071717
11.430000	0.072938
11.432000	0.095216
11.434000	0.093385
11.436000	0.081483
11.438000	0.051575
11.440000	0.070802
11.442000	0.074159
11.444000	0.078431
11.446000	0.085756
11.448000	0.102846
11.450000	0.073548
11.452000	0.090639
11.454000	0.105592
11.456000	0.070192
11.458000	0.074159
11.460000	0.068971
11.462000	0.101625
11.464000	0.092470
11.466000	0.050050
11.468000	0.036927
11.470000	0.067140
11.472000	0.091554
11.474000	0.091859
11.476000	0.083619
11.478000	0.100099
11.480000	0.110170
11.482000	0.086976
11.484000	0.109255
11.486000	0.109560
11.488000	0.114443
11.490000	0.106508
11.492000	0.106508
11.494000	0.120241
11.496000	0.130617
11.498000	0.173037
11.500000	0.161746
11.502000	0.133669
11.504000	0.210269
11.506000	0.231327
11.508000	0.203555
11.510000	0.213321
11.512000	0.209354
11.514000	0.138857
11.516000	0.094911
11.518000	0.065309
11.520000	0.048524
11.522000	0.000000
11.524000	-0.052491
11.526000	-0.097047
11.528000	-0.125124
11.530000	-0.079347
11.532000	-0.115053
11.534000	-0.238651
11.536000	-0.281987
11.538000	-0.254215
11.540000	-0.278630
11.542000	-0.329290
11.544000	-0.354620
11.546000	-0.366827
11.548000	-0.393683
11.550000	-0.417487
11.552000	-0.431830
11.554000	-0.476997
11.556000	-0.499275
11.558000	-0.533150
11.560000	-0.542000
11.562000	-0.577401
11.564000	-0.572213
11.566000	-0.595712
11.568000	-0.613413
11.570000	-0.632029
11.572000	-0.664378
11.574000	-0.648814
11.576000	-0.635691
11.578000	-0.665293
11.580000	-0.717174
11.582000	-0.740368
11.584000	-0.731212
11.586000	-0.720836
11.588000	-0.737316
11.590000	-0.756542
11.592000	-0.719310
11.594000	-0.698253
11.596000	-0.723583
11.598000	-0.753796
11.600000	-0.749523
11.602000	-0.749523
11.604000	-0.701610
11.606000	-0.697948
11.608000	-0.734874
11.610000	-0.783093
11.612000	-0.784924
11.614000	-0.772107
11.616000	-0.789502
11.618000	-0.791333
11.620000	-0.766613
11.622000	-0.744945
11.624000	-0.778820
11.626000	-0.806897
11.628000	-0.791028
11.630000	-0.765087
11.632000	-0.777905
11.634000	-0.804456
11.636000	-0.752880
11.638000	-0.711986
11.640000	-0.730602
11.642000	-0.740673
11.644000	-0.723888
11.646000	-0.711070
11.648000	-0.733349
11.650000	-0.706188
11.652000	-0.675059
11.654000	-0.642405
11.656000	-0.640574
11.658000	-0.661631
11.660000	-0.698253
11.662000	-0.742199
11.664000	-0.758373
11.666000	-0.708934
11.668000	-0.680858
11.670000	-0.664073
11.672000	-0.651865
11.674000	-0.667735
11.676000	-0.684825
11.678000	-0.675669
11.680000	-0.661631
11.682000	-0.641794
11.684000	-0.606394
11.686000	-0.614939
11.688000	-0.612192
11.690000	-0.574655
11.692000	-0.548714
11.694000	-0.542611
11.696000	-0.520943
11.698000	-0.525521
11.700000	-0.523995
11.702000	-0.525521
11.704000	-0.471199
11.706000	-0.459602
11.708000	-0.487068
11.710000	-0.455024
11.712000	-0.437324
11.714000	-0.491035
11.716000	-0.500801
11.718000	-0.505379
11.720000	-0.459602
11.722000	-0.291142
11.724000	-0.118105
11.726000	0.037537
11.728000	0.290837
11.730000	0.513008
11.732000	0.753185
11.734000	0.945754
11.736000	0.765698
11.738000	0.274662
11.740000	-0.127565
11.742000	-0.362554
11.744000	-0.444038
11.746000	-0.468147
11.748000	-0.425116
11.750000	-0.360418
11.752000	-0.313725
11.754000	-0.271611
11.756000	-0.282902
11.758000	-0.275883
11.760000	-0.257572
11.762000	-0.254520
11.764000	-0.233768
11.766000	-0.284428
11.768000	-0.281071
11.770000	-0.194705
11.772000	-0.192569
11.774000	-0.231937
11.776000	-0.226444
11.778000	-0.192874
11.780000	-0.194095
11.782000	-0.173648
11.784000	-0.203250
11.786000	-0.199893
11.788000	-0.184024
11.790000	-0.173953
11.792000	-0.169680
11.794000	-0.185855
11.796000	-0.160830
11.798000	-0.146792
11.800000	-0.162356
11.802000	-0.181582
11.804000	-0.162661
11.806000	-0.131838
11.808000	-0.102541
11.810000	-0.130922
11.812000	-0.106813
11.814000	-0.082399
11.816000	-0.081483
11.818000	-0.107424
11.820000	-0.108644
11.822000	-0.112306
11.824000	-0.136416
11.826000	-0.117189
11.828000	-0.113222
11.830000	-0.127871
11.832000	-0.075380
11.834000	-0.079652
11.836000	-0.110781
11.838000	-0.111696
11.840000	-0.086671
11.842000	-0.054932
11.844000	-0.046693
11.846000	-0.081178
11.848000	-0.068055
11.850000	-0.074159
11.852000	-0.081178
11.854000	-0.070802
11.856000	-0.095521
11.858000	-0.055543
11.860000	-0.064393
11.862000	-0.058900
11.864000	-0.012818
11.866000	-0.010681
11.868000	0.032654
11.870000	0.070802
11.872000	0.053101
11.874000	0.058289
11.876000	0.086671
11.878000	0.044251
11.880000	0.054017
11.882000	0.054017
11.884000	0.045472
11.886000	0.036011
11.888000	0.047608
11.890000	0.031434
11.892000	-0.012512
11.894000	-0.011902
11.896000	-0.007019
11.898000	-0.034180
11.900000	-0.040589
11.902000	-0.027771
11.904000	-0.020142
11.906000	-0.019837
11.908000	-0.004883
11.910000	-0.010071
11.912000	-0.002441
11.914000	0.008545
11.916000	-0.015869
11.918000	0.018006
11.920000	0.013123
11.922000	0.014343
11.924000	0.004578
11.926000	-0.044556
11.928000	-0.007019
11.930000	-0.016175
11.932000	0.007630
11.934000	0.018921
11.936000	0.000000
11.938000	0.006714
11.940000	-0.013733
11.942000	-0.039673
11.944000	-0.016785
11.946000	-0.024109
11.948000	-0.030823
11.950000	0.010681
11.952000	-0.000916
11.954000	-0.011292
11.956000	0.010071
11.958000	-0.023499
11.960000	-0.022278
11.962000	-0.000305
11.964000	0.034485
11.966000	0.001221
11.968000	-0.004578
11.970000	-0.004578
11.972000	-0.027161
11.974000	0.026551
11.976000	0.007935
11.978000	0.024414
11.980000	0.059815
11.982000	0.076905
11.984000	0.110170
11.986000	0.071717
11.988000	0.096742
11.990000	0.088502
11.992000	0.063783
11.994000	0.121157
11.996000	0.152285
11.998000	0.109865
12.000000	0.061036
12.002000	0.004883
12.004000	0.055848
12.006000	0.026856
12.008000	-0.014649
12.010000	-0.011902
12.012000	0.006409
12.014000	-0.020752
12.016000	-0.050050
12.018000	-0.003357
12.020000	0.004273
12.022000	-0.027161
12.024000	-0.018311
12.026000	-0.016175
12.028000	-0.031739
12.030000	-0.015564
12.032000	-0.026246
12.034000	-0.046998
12.036000	-0.035401
12.038000	0.021057
12.040000	0.026856
12.042000	0.003967
12.044000	-0.006714
12.046000	-0.013428
12.048000	-0.037842
12.050000	-0.024414
12.052000	-0.018616
12.054000	-0.019226
12.056000	-0.028992
12.058000	-0.028687
12.060000	-0.025025
12.062000	-0.078126
12.064000	-0.057679
12.066000	0.054322
12.068000	0.267033
12.070000	0.469978
12.072000	0.628977
12.074000	0.818799
12.076000	1.069963
12.078000	1.261311
12.080000	1.094987
12.082000	0.661021
12.084000	0.266728
12.086000	-0.063478
12.088000	-0.148318
12.090000	-0.061341
12.092000	-0.072633
12.094000	-0.042420
12.096000	0.039979
12.098000	0.048829
12.100000	0.050965
12.102000	0.052491
12.104000	0.066835
12.106000	0.054932
12.108000	-0.001526
12.110000	0.015259
12.112000	-0.020447
12.114000	0.049744
12.116000	0.034791
12.118000	0.002136
12.120000	0.067750
12.122000	0.063783
12.124000	0.057069
12.126000	0.022278
12.128000	0.035096
12.130000	0.035706
12.132000	0.072328
12.134000	0.057374
12.136000	0.108949
12.138000	0.088808
12.140000	0.057679
12.142000	0.050355
12.144000	0.049134
12.146000	0.089113
12.148000	0.082094
12.150000	0.073854
12.152000	0.081483
12.154000	0.130312
12.156000	0.124514
12.158000	0.069581
12.160000	0.093690
12.162000	0.144045
12.164000	0.126345
12.166000	0.093080
12.168000	0.093080
12.170000	0.104067
12.172000	0.065003
12.174000	0.054322
12.176000	0.058900
12.178000	0.070497
12.180000	0.110475
12.182000	0.106813
12.184000	0.091249
12.186000	0.084840
12.188000	0.077516
12.190000	0.100404
12.192000	0.096742
12.194000	0.105287
12.196000	0.147707
12.198000	0.183719
12.200000	0.153201
12.202000	0.127871
12.204000	0.151675
12.206000	0.200809
12.208000	0.206607
12.210000	0.183108
12.212000	0.208438
12.214000	0.265812
12.216000	0.249943
12.218000	0.256657
12.220000	0.252079
12.222000	0.159915
12.224000	0.180972
12.226000	0.158694
12.228000	0.153201
12.230000	0.153201
12.232000	0.118410
12.234000	0.114443
12.236000	0.120241
12.238000	0.094301
12.240000	0.079957
12.242000	0.110475
12.244000	0.153506
12.246000	0.142519
12.248000	0.098268
12.250000	0.127260
12.252000	0.116884
12.254000	0.109865
12.256000	0.090028
12.258000	0.116579
12.260000	0.114137
12.262000	0.098878
12.264000	0.077821
12.266000	0.030823
12.268000	0.079957
12.270000	0.133974
12.272000	0.114748
12.274000	0.080262
12.276000	0.100710
12.278000	0.081178
12.280000	0.080262
12.282000	0.083314
12.284000	0.082399
12.286000	0.095827
12.288000	0.097353
12.290000	0.064698
12.292000	0.052796
12.294000	0.067750
12.296000	0.103456
12.298000	0.107118
12.300000	0.058595
12.302000	0.045167
12.304000	0.068666
12.306000	0.100099
12.308000	0.069581
12.310000	0.042725
12.312000	0.089723
12.314000	0.099184
12.316000	0.079347
12.318000	0.076905
12.320000	0.130922
12.322000	0.115969
12.324000	0.097963
12.326000	0.128176
12.328000	0.142519
12.330000	0.134890
12.332000	0.126650
12.334000	0.158694
12.336000	0.220645
12.338000	0.175784
12.340000	0.155337
12.342000	0.158999
12.344000	0.171511
12.346000	0.165408
12.348000	0.140688
12.350000	0.134890
12.352000	0.150759
12.354000	0.114748
12.356000	0.082094
12.358000	0.109865
12.360000	0.063478
12.362000	0.040894
12.364000	0.050355
12.366000	0.030213
12.368000	0.025330
12.370000	0.060731
12.372000	0.061952
12.374000	0.016480
12.376000	0.026856
12.378000	0.060121
12.380000	0.051881
12.382000	0.032654
12.384000	0.023804
12.386000	0.060731
12.388000	0.037537
12.390000	0.008545
12.392000	-0.021973
12.394000	-0.028992
12.396000	-0.003357
12.398000	-0.015869
12.400000	-0.034485
12.402000	-0.016785
12.404000	0.001831
12.406000	0.028992
12.408000	-0.052186
12.410000	-0.104677
12.412000	-0.116579
12.414000	-0.104677
12.416000	0.064393
12.418000	0.247196
12.420000	0.442817
12.422000	0.690318
12.424000	0.894484
12.426000	1.122454
12.428000	1.151446
12.430000	0.801099
12.432000	0.298772
12.434000	-0.065614
12.436000	-0.213321
12.438000	-0.251163
12.440000	-0.198672
12.442000	-0.116274
12.444000	-0.074769
12.446000	-0.067750
12.448000	-0.060426
12.450000	-0.041810
12.452000	-0.064088
12.454000	-0.056153
12.456000	-0.061341
12.458000	-0.100710
12.460000	-0.109560
12.462000	-0.059205
12.464000	-0.073243
12.466000	-0.074159
12.468000	-0.043946
12.470000	-0.075074
12.472000	-0.038453
12.474000	-0.006409
12.476000	-0.051270
12.478000	-0.024109
12.480000	0.007019
12.482000	-0.006104
12.484000	-0.018921
12.486000	-0.039673
12.488000	-0.030823
12.490000	-0.028077
12.492000	0.001221
12.494000	-0.028382
12.496000	0.008240
12.498000	0.011597
12.500000	-0.018921
12.502000	-0.007324
12.504000	0.059510
12.506000	0.056764
12.508000	-0.000610
12.510000	-0.018006
12.512000	-0.000305
12.514000	0.015259
12.516000	0.018921
12.518000	0.021668
12.520000	0.054322
12.522000	0.058900
12.524000	0.054017
12.526000	0.042420
12.528000	0.047913
12.530000	0.064393
12.532000	0.021973
12.534000	0.003357
12.536000	0.065003
12.538000	0.072328
12.540000	0.054017
12.542000	0.075990
12.544000	0.101015
12.546000	0.119936
12.548000	0.162661
12.550000	0.125429
12.552000	0.091859
12.554000	0.103151
12.556000	0.115053
12.558000	0.067140
12.560000	0.124819
12.562000	0.189822
12.564000	0.170291
12.566000	0.179141
12.568000	0.208743
12.570000	0.186770
12.572000	0.160525
12.574000	0.189822
12.576000	0.133974
12.578000	0.158694
12.580000	0.155642
12.582000	0.146181
12.584000	0.108644
12.586000	0.102235
12.588000	0.100099
12.590000	0.079347
12.592000	0.063478
12.594000	0.083925
12.596000	0.109255
12.598000	0.075380
12.600000	0.047913
12.602000	0.078431
12.604000	0.127871
12.606000	0.101320
12.608000	0.040284
12.610000	0.050050
12.612000	0.075380
12.614000	0.086976
12.616000	0.135195
12.618000	0.126650
12.620000	0.137636
12.622000	0.116274
12.624000	0.088808
12.626000	0.106813
12.628000	0.158694
12.630000	0.122377
12.632000	0.077516
12.634000	0.086061
12.636000	0.110475
12.638000	0.068666
12.640000	0.057679
12.642000	0.114748
12.644000	0.151980
12.646000	0.112612
12.648000	0.078431
12.650000	0.119936
12.652000	0.075074
12.654000	0.046082
12.656000	0.140688
12.658000	0.138857
12.660000	0.070802
12.662000	0.144350
12.664000	0.167239
12.666000	0.158389
12.668000	0.140688
12.670000	0.140078
12.672000	0.183413
12.674000	0.252995
12.676000	0.292058
12.678000	0.224308
12.680000	0.212406
12.682000	0.216373
12.684000	0.227054
12.686000	0.250248
12.688000	0.248722
12.690000	0.244450
12.692000	0.209354
12.694000	0.157473
12.696000	0.168154
12.698000	0.162966
12.700000	0.106508
12.702000	0.151369
12.704000	0.156252
12.706000	0.126955
12.708000	0.099489
12.710000	0.090944
12.712000	0.098268
12.714000	0.079347
12.716000	0.062562
12.718000	0.084230
12.720000	0.131228
12.722000	0.094301
12.724000	0.043030
12.726000	0.078126
12.728000	0.108949
12.730000	0.084535
12.732000	0.059815
12.734000	0.104982
12.736000	0.121462
12.738000	0.100404
12.740000	0.098878
12.742000	0.102846
12.744000	0.061646
12.746000	0.068360
12.748000	0.103761
12.750000	0.112306
12.752000	0.079042
12.754000	0.047303
12.756000	-0.011902
12.758000	-0.052491
12.760000	0.103761
12.762000	0.292973
12.764000	0.478828
12.766000	0.659495
12.768000	0.819715
12.770000	1.080949
12.772000	1.280537
12.774000	1.181659
12.776000	0.722972
12.778000	0.271305
12.780000	0.007935
12.782000	-0.008545
12.784000	0.016175
12.786000	0.044251
12.788000	0.046998
12.790000	0.075685
12.792000	0.074769
12.794000	0.090639
12.796000	0.056458
12.798000	0.036316
12.800000	0.009766
12.802000	0.073243
12.804000	0.118715
12.806000	0.096132
