0.000000	-0.006394
0.002000	-0.003957
0.004000	-0.001813
0.006000	0.000000
0.008000	0.002456
0.010000	0.004581
0.012000	0.007037
0.014000	0.009162
0.016000	0.010390
0.018000	0.011910
0.020000	0.012515
0.022000	0.012827
0.024000	0.011910
0.026000	0.010390
0.028000	0.008246
0.030000	0.005809
0.032000	0.003060
0.034000	0.000000
0.036000	-0.002125
0.038000	-0.003353
0.040000	-0.002125
0.042000	-0.000292
0.044000	0.002144
0.046000	0.004581
0.048000	0.006413
0.050000	0.008246
0.052000	0.008869
0.054000	0.007953
0.056000	0.004893
0.058000	0.000916
0.060000	-0.002437
0.062000	-0.005789
0.064000	-0.007622
0.066000	-0.008226
0.068000	-0.007622
0.070000	-0.004561
0.072000	-0.000292
0.074000	0.004893
0.076000	0.010078
0.078000	0.014347
0.080000	0.017407
0.082000	0.020156
0.084000	0.020448
0.086000	0.019532
0.088000	0.016491
0.090000	0.014055
0.092000	0.010994
0.094000	0.008557
0.096000	0.004893
0.098000	0.001540
0.100000	0.000000
0.102000	-0.001209
0.104000	-0.002729
0.106000	-0.004561
0.108000	-0.007622
0.110000	-0.011579
0.112000	-0.016160
0.114000	-0.020429
0.116000	-0.025010
0.118000	-0.029279
0.120000	-0.032651
0.122000	-0.034483
0.124000	-0.035088
0.126000	-0.034172
0.128000	-0.032339
0.130000	-0.029279
0.132000	-0.025926
0.134000	-0.022261
0.136000	-0.019513
0.138000	-0.016784
0.140000	-0.013723
0.142000	-0.010370
0.144000	-0.007018
0.146000	-0.003957
0.148000	-0.001520
0.150000	0.001228
0.152000	0.002456
0.154000	0.003372
0.156000	0.001832
0.158000	-0.002125
0.160000	-0.007018
0.162000	-0.012495
0.164000	-0.018596
0.166000	-0.023801
0.168000	-0.027154
0.170000	-0.028986
0.172000	-0.028363
0.174000	-0.025926
0.176000	-0.021657
0.178000	-0.016472
0.180000	-0.010058
0.182000	-0.003353
0.184000	0.002456
0.186000	0.007641
0.188000	0.012222
0.190000	0.015575
0.192000	0.017096
0.194000	0.016491
0.196000	0.014055
0.198000	0.010682
0.200000	0.007037
0.202000	0.002456
0.204000	-0.002125
0.206000	-0.007018
0.208000	-0.010370
0.210000	-0.013119
0.212000	-0.014951
0.214000	-0.015867
0.216000	-0.015867
0.218000	-0.015556
0.220000	-0.014035
0.222000	-0.012203
0.224000	-0.009454
0.226000	-0.005789
0.228000	-0.002729
0.230000	0.000916
0.232000	0.004893
0.234000	0.008246
0.236000	0.010682
0.238000	0.012515
0.240000	0.015263
0.242000	0.019240
0.244000	0.024113
0.246000	0.030838
0.248000	0.038148
0.250000	0.047310
0.252000	0.058304
0.254000	0.069903
0.256000	0.080877
0.258000	0.089435
0.260000	0.094620
0.262000	0.095536
0.264000	0.092164
0.266000	0.084230
0.268000	0.072027
0.270000	0.056160
0.272000	0.039376
0.274000	0.022281
0.276000	0.006725
0.278000	-0.006101
0.280000	-0.016160
0.282000	-0.023801
0.284000	-0.028070
0.286000	-0.031111
0.288000	-0.033255
0.290000	-0.035088
0.292000	-0.036608
0.294000	-0.038441
0.296000	-0.040273
0.298000	-0.041793
0.300000	-0.041793
0.302000	-0.041189
0.304000	-0.038129
0.306000	-0.035088
0.308000	-0.031735
0.310000	-0.027466
0.312000	-0.024094
0.314000	-0.020429
0.316000	-0.017992
0.318000	-0.015867
0.320000	-0.015244
0.322000	-0.015867
0.324000	-0.017700
0.326000	-0.020741
0.328000	-0.024405
0.330000	-0.029279
0.332000	-0.033567
0.334000	-0.037524
0.336000	-0.040585
0.338000	-0.042417
0.340000	-0.041793
0.342000	-0.040273
0.344000	-0.037212
0.346000	-0.033567
0.348000	-0.028986
0.350000	-0.024717
0.352000	-0.020136
0.354000	-0.013723
0.356000	-0.004873
0.358000	0.010390
0.360000	0.032359
0.362000	0.061969
0.364000	0.100409
0.366000	0.149844
0.368000	0.206608
0.370000	0.267641
0.372000	0.322885
0.374000	0.361949
0.376000	0.374152
0.378000	0.355848
0.380000	0.307622
0.382000	0.233158
0.384000	0.140994
0.386000	0.039981
0.388000	-0.058285
0.390000	-0.140058
0.392000	-0.197134
0.394000	-0.224912
0.396000	-0.224288
0.398000	-0.201404
0.400000	-0.163879
0.402000	-0.121754
0.404000	-0.081774
0.406000	-0.049123
0.408000	-0.025926
0.410000	-0.011891
0.412000	-0.005185
0.414000	-0.004561
0.416000	-0.007310
0.418000	-0.012203
0.420000	-0.016160
0.422000	-0.019513
0.424000	-0.021345
0.426000	-0.021969
0.428000	-0.020136
0.430000	-0.018304
0.432000	-0.015867
0.434000	-0.013119
0.436000	-0.010370
0.438000	-0.007934
0.440000	-0.007018
0.442000	-0.005185
0.444000	-0.004269
0.446000	-0.003353
0.448000	-0.002729
0.450000	-0.001209
0.452000	0.000312
0.454000	0.002144
0.456000	0.003372
0.458000	0.004581
0.460000	0.004893
0.462000	0.005497
0.464000	0.005497
0.466000	0.006413
0.468000	0.006725
0.470000	0.007329
0.472000	0.007953
0.474000	0.008869
0.476000	0.008869
0.478000	0.009162
0.480000	0.008869
0.482000	0.008246
0.484000	0.007037
0.486000	0.006121
0.488000	0.005809
0.490000	0.005497
0.492000	0.004581
0.494000	0.003665
0.496000	0.002749
0.498000	0.003060
0.500000	0.003060
0.502000	0.003665
0.504000	0.003372
0.506000	0.002749
0.508000	0.000916
0.510000	-0.000604
0.512000	-0.002125
0.514000	-0.004873
0.516000	-0.007622
0.518000	-0.010975
0.520000	-0.014951
0.522000	-0.018304
0.524000	-0.022261
0.526000	-0.024717
0.528000	-0.026550
0.530000	-0.026238
0.532000	-0.024405
0.534000	-0.021053
0.536000	-0.015244
0.538000	-0.007622
0.540000	0.001540
0.542000	0.011306
0.544000	0.021072
0.546000	0.029006
0.548000	0.036023
0.550000	0.039981
0.552000	0.040897
0.554000	0.038772
0.556000	0.033879
0.558000	0.026569
0.560000	0.016179
0.562000	0.005497
0.564000	-0.005478
0.566000	-0.016784
0.568000	-0.027466
0.570000	-0.036316
0.572000	-0.043626
0.574000	-0.048519
0.576000	-0.050351
0.578000	-0.050955
0.580000	-0.049123
0.582000	-0.045770
0.584000	-0.040273
0.586000	-0.035692
0.588000	-0.030819
0.590000	-0.027466
0.592000	-0.025926
0.594000	-0.024717
0.596000	-0.026238
0.598000	-0.028674
0.600000	-0.031111
0.602000	-0.033567
0.604000	-0.035400
0.606000	-0.035692
0.608000	-0.035400
0.610000	-0.033860
0.612000	-0.031735
0.614000	-0.029279
0.616000	-0.026842
0.618000	-0.024717
0.620000	-0.022885
0.622000	-0.020429
0.624000	-0.017388
0.626000	-0.014951
0.628000	-0.013411
0.630000	-0.013119
0.632000	-0.013723
0.634000	-0.015556
0.636000	-0.018304
0.638000	-0.021969
0.640000	-0.026842
0.642000	-0.030819
0.644000	-0.034172
0.646000	-0.036608
0.648000	-0.036920
0.650000	-0.036004
0.652000	-0.033860
0.654000	-0.031423
0.656000	-0.028363
0.658000	-0.026842
0.660000	-0.025322
0.662000	-0.024717
0.664000	-0.023801
0.666000	-0.023801
0.668000	-0.023489
0.670000	-0.022885
0.672000	-0.021053
0.674000	-0.019220
0.676000	-0.016160
0.678000	-0.013119
0.680000	-0.010058
0.682000	-0.006394
0.684000	-0.002125
0.686000	0.001540
0.688000	0.004893
0.690000	0.007641
0.692000	0.010994
0.694000	0.014971
0.696000	0.019844
0.698000	0.025653
0.700000	0.032359
0.702000	0.040292
0.704000	0.047310
0.706000	0.055244
0.708000	0.062573
0.710000	0.067758
0.712000	0.071111
0.714000	0.070819
0.716000	0.066238
0.718000	0.057680
0.720000	0.044873
0.722000	0.029610
0.724000	0.012827
0.726000	-0.004561
0.728000	-0.021657
0.730000	-0.035400
0.732000	-0.046686
0.734000	-0.053392
0.736000	-0.056140
0.738000	-0.056452
0.740000	-0.054016
0.742000	-0.050039
0.744000	-0.046374
0.746000	-0.043938
0.748000	-0.041793
0.750000	-0.040877
0.752000	-0.040273
0.754000	-0.039961
0.756000	-0.040273
0.758000	-0.041793
0.760000	-0.044250
0.762000	-0.046686
0.764000	-0.049727
0.766000	-0.052476
0.768000	-0.055536
0.770000	-0.058577
0.772000	-0.060721
0.774000	-0.061326
0.776000	-0.061033
0.778000	-0.058889
0.780000	-0.056140
0.782000	-0.053392
0.784000	-0.050039
0.786000	-0.046979
0.788000	-0.044542
0.790000	-0.042105
0.792000	-0.040877
0.794000	-0.039961
0.796000	-0.039669
0.798000	-0.038752
0.800000	-0.038129
0.802000	-0.036316
0.804000	-0.030507
0.806000	-0.016784
0.808000	0.004288
0.810000	0.035107
0.812000	0.075088
0.814000	0.126355
0.816000	0.187076
0.818000	0.253314
0.820000	0.314035
0.822000	0.357973
0.824000	0.374464
0.826000	0.359513
0.828000	0.312515
0.830000	0.236823
0.832000	0.140994
0.834000	0.035419
0.836000	-0.066823
0.838000	-0.153489
0.840000	-0.213918
0.842000	-0.243216
0.844000	-0.242300
0.846000	-0.216979
0.848000	-0.176998
0.850000	-0.131209
0.852000	-0.089103
0.854000	-0.055828
0.856000	-0.033567
0.858000	-0.021345
0.860000	-0.016160
0.862000	-0.016784
0.864000	-0.020741
0.866000	-0.025010
0.868000	-0.028070
0.870000	-0.028986
0.872000	-0.029279
0.874000	-0.027154
0.876000	-0.023801
0.878000	-0.021345
0.880000	-0.018596
0.882000	-0.015867
0.884000	-0.014327
0.886000	-0.012203
0.888000	-0.010663
0.890000	-0.009747
0.892000	-0.008850
0.894000	-0.008226
0.896000	-0.007622
0.898000	-0.007018
0.900000	-0.006101
0.902000	-0.004873
0.904000	-0.002729
0.906000	-0.000897
0.908000	0.000624
0.910000	0.002144
0.912000	0.003060
0.914000	0.003372
0.916000	0.003060
0.918000	0.002749
0.920000	0.002749
0.922000	0.002749
0.924000	0.003060
0.926000	0.003665
0.928000	0.004893
0.930000	0.004893
0.932000	0.005497
0.934000	0.005497
0.936000	0.005497
0.938000	0.005497
0.940000	0.004893
0.942000	0.004893
0.944000	0.005205
0.946000	0.006413
0.948000	0.008246
0.950000	0.010682
0.952000	0.012222
0.954000	0.012827
0.956000	0.012515
0.958000	0.012222
0.960000	0.011598
0.962000	0.010994
0.964000	0.010994
0.966000	0.009766
0.968000	0.008869
0.970000	0.009474
0.972000	0.010390
0.974000	0.010994
0.976000	0.011910
0.978000	0.011910
0.980000	0.012222
0.982000	0.013138
0.984000	0.015263
0.986000	0.017719
0.988000	0.021365
0.990000	0.026257
0.992000	0.032047
0.994000	0.038148
0.996000	0.044561
0.998000	0.049142
1.000000	0.051287
1.002000	0.050663
1.004000	0.047310
1.006000	0.039981
1.008000	0.030526
1.010000	0.018616
1.012000	0.007037
1.014000	-0.004561
1.016000	-0.013411
1.018000	-0.019220
1.020000	-0.022573
1.022000	-0.023489
1.024000	-0.022573
1.026000	-0.020741
1.028000	-0.018908
1.030000	-0.016472
1.032000	-0.016160
1.034000	-0.016472
1.036000	-0.018596
1.038000	-0.020741
1.040000	-0.022885
1.042000	-0.025010
1.044000	-0.026550
1.046000	-0.027154
1.048000	-0.028070
1.050000	-0.027758
1.052000	-0.027154
1.054000	-0.025926
1.056000	-0.024094
1.058000	-0.022261
1.060000	-0.020136
1.062000	-0.017700
1.064000	-0.014951
1.066000	-0.012807
1.068000	-0.010975
1.070000	-0.008850
1.072000	-0.007018
1.074000	-0.006706
1.076000	-0.007934
1.078000	-0.009747
1.080000	-0.012203
1.082000	-0.014951
1.084000	-0.016784
1.086000	-0.018908
1.088000	-0.019513
1.090000	-0.019220
1.092000	-0.017388
1.094000	-0.015556
1.096000	-0.012807
1.098000	-0.009454
1.100000	-0.005789
1.102000	-0.002729
1.104000	-0.000897
1.106000	-0.001209
1.108000	-0.001813
1.110000	-0.002729
1.112000	-0.005185
1.114000	-0.007018
1.116000	-0.008850
1.118000	-0.008850
1.120000	-0.006394
1.122000	0.000312
1.124000	0.009766
1.126000	0.023509
1.128000	0.039064
1.130000	0.055556
1.132000	0.071735
1.134000	0.086062
1.136000	0.097057
1.138000	0.103762
1.140000	0.104678
1.142000	0.099805
1.144000	0.088207
1.146000	0.072943
1.148000	0.053119
1.150000	0.031754
1.152000	0.010390
1.154000	-0.008850
1.156000	-0.025634
1.158000	-0.038752
1.160000	-0.047602
1.162000	-0.052788
1.164000	-0.054620
1.166000	-0.054308
1.168000	-0.052476
1.170000	-0.050039
1.172000	-0.047290
1.174000	-0.044854
1.176000	-0.042710
1.178000	-0.041189
1.180000	-0.039669
1.182000	-0.038441
1.184000	-0.037836
1.186000	-0.038752
1.188000	-0.040273
1.190000	-0.042105
1.192000	-0.043626
1.194000	-0.045166
1.196000	-0.046062
1.198000	-0.046686
1.200000	-0.046062
1.202000	-0.045166
1.204000	-0.043626
1.206000	-0.040585
1.208000	-0.037836
1.210000	-0.034483
1.212000	-0.031423
1.214000	-0.027758
1.216000	-0.025926
1.218000	-0.023489
1.220000	-0.023177
1.222000	-0.022573
1.224000	-0.022885
1.226000	-0.020429
1.228000	-0.012807
1.230000	0.002144
1.232000	0.025653
1.234000	0.058908
1.236000	0.102846
1.238000	0.158090
1.240000	0.220955
1.242000	0.286569
1.244000	0.343021
1.246000	0.379961
1.248000	0.387895
1.250000	0.363782
1.252000	0.310058
1.254000	0.231033
1.256000	0.135205
1.258000	0.032671
1.260000	-0.063158
1.262000	-0.140975
1.264000	-0.193782
1.266000	-0.217583
1.268000	-0.214230
1.270000	-0.191345
1.272000	-0.155926
1.274000	-0.117173
1.276000	-0.082086
1.278000	-0.054308
1.280000	-0.035088
1.282000	-0.023489
1.284000	-0.017992
1.286000	-0.016472
1.288000	-0.017700
1.290000	-0.018596
1.292000	-0.020136
1.294000	-0.021969
1.296000	-0.023177
1.298000	-0.024405
1.300000	-0.024717
1.302000	-0.024717
1.304000	-0.024094
1.306000	-0.023177
1.308000	-0.021657
1.310000	-0.019220
1.312000	-0.015867
1.314000	-0.012495
1.316000	-0.009142
1.318000	-0.006394
1.320000	-0.004561
1.322000	-0.002125
1.324000	-0.000604
1.326000	-0.000292
1.328000	0.000312
1.330000	-0.000604
1.332000	-0.002437
1.334000	-0.003957
1.336000	-0.005185
1.338000	-0.004873
1.340000	-0.004561
1.342000	-0.004269
1.344000	-0.002437
1.346000	0.000916
1.348000	0.003977
1.350000	0.006725
1.352000	0.008557
1.354000	0.008557
1.356000	0.007641
1.358000	0.005497
1.360000	0.003372
1.362000	0.000624
1.364000	-0.001209
1.366000	-0.001813
1.368000	-0.001813
1.370000	-0.000897
1.372000	0.000916
1.374000	0.003665
1.376000	0.005809
1.378000	0.007037
1.380000	0.007953
1.382000	0.008869
1.384000	0.009474
1.386000	0.009162
1.388000	0.009162
1.390000	0.008869
1.392000	0.008557
1.394000	0.007953
1.396000	0.007037
1.398000	0.006725
1.400000	0.006725
1.402000	0.006413
1.404000	0.007329
1.406000	0.010078
1.408000	0.014971
1.410000	0.021365
1.412000	0.028694
1.414000	0.036023
1.416000	0.043353
1.418000	0.047914
1.420000	0.049747
1.422000	0.049142
1.424000	0.045185
1.426000	0.039688
1.428000	0.032963
1.430000	0.024113
1.432000	0.014347
1.434000	0.005497
1.436000	-0.002125
1.438000	-0.008850
1.440000	-0.014035
1.442000	-0.018596
1.444000	-0.021969
1.446000	-0.024094
1.448000	-0.024717
1.450000	-0.022885
1.452000	-0.020741
1.454000	-0.016784
1.456000	-0.014035
1.458000	-0.010975
1.460000	-0.010370
1.462000	-0.010058
1.464000	-0.010975
1.466000	-0.012495
1.468000	-0.014951
1.470000	-0.017388
1.472000	-0.019220
1.474000	-0.019513
1.476000	-0.017388
1.478000	-0.014951
1.480000	-0.012203
1.482000	-0.009142
1.484000	-0.007310
1.486000	-0.006101
1.488000	-0.004561
1.490000	-0.003645
1.492000	-0.003645
1.494000	-0.003957
1.496000	-0.004873
1.498000	-0.006101
1.500000	-0.006706
1.502000	-0.007934
1.504000	-0.009747
1.506000	-0.011579
1.508000	-0.013723
1.510000	-0.014951
1.512000	-0.016160
1.514000	-0.016784
1.516000	-0.016160
1.518000	-0.014639
1.520000	-0.012495
1.522000	-0.009454
1.524000	-0.006394
1.526000	-0.003645
1.528000	-0.000292
1.530000	0.003977
1.532000	0.009162
1.534000	0.016803
1.536000	0.025945
1.538000	0.036316
1.540000	0.049142
1.542000	0.063177
1.544000	0.076296
1.546000	0.087602
1.548000	0.095828
1.550000	0.100721
1.552000	0.101014
1.554000	0.096140
1.556000	0.085770
1.558000	0.071423
1.560000	0.053411
1.562000	0.034503
1.564000	0.015263
1.566000	-0.003041
1.568000	-0.019220
1.570000	-0.031111
1.572000	-0.038752
1.574000	-0.043626
1.576000	-0.044854
1.578000	-0.042710
1.580000	-0.039045
1.582000	-0.034483
1.584000	-0.030507
1.586000	-0.027154
1.588000	-0.025926
1.590000	-0.025926
1.592000	-0.027154
1.594000	-0.029279
1.596000	-0.032027
1.598000	-0.034172
1.600000	-0.036920
1.602000	-0.039669
1.604000	-0.041501
1.606000	-0.042417
1.608000	-0.042710
1.610000	-0.042105
1.612000	-0.040273
1.614000	-0.038752
1.616000	-0.036004
1.618000	-0.032943
1.620000	-0.030195
1.622000	-0.025926
1.624000	-0.023177
1.626000	-0.020429
1.628000	-0.018304
1.630000	-0.017388
1.632000	-0.017388
1.634000	-0.017388
1.636000	-0.017700
1.638000	-0.018304
1.640000	-0.018304
1.642000	-0.016784
1.644000	-0.012807
1.646000	-0.004269
1.648000	0.011306
1.650000	0.034795
1.652000	0.066238
1.654000	0.105302
1.656000	0.151988
1.658000	0.206004
1.660000	0.257271
1.662000	0.302437
1.664000	0.329298
1.666000	0.333255
1.668000	0.309766
1.670000	0.260019
1.672000	0.188616
1.674000	0.103762
1.676000	0.014659
1.678000	-0.068051
1.680000	-0.136101
1.682000	-0.181871
1.684000	-0.200487
1.686000	-0.194990
1.688000	-0.171501
1.690000	-0.135497
1.692000	-0.097641
1.694000	-0.062554
1.696000	-0.033255
1.698000	-0.013119
1.700000	-0.000897
1.702000	0.004288
1.704000	0.004288
1.706000	0.001540
1.708000	-0.002125
1.710000	-0.006101
1.712000	-0.009142
1.714000	-0.012203
1.716000	-0.014035
1.718000	-0.015244
1.720000	-0.015556
1.722000	-0.014639
1.724000	-0.013119
1.726000	-0.010663
1.728000	-0.007622
1.730000	-0.004269
1.732000	-0.000604
1.734000	0.002456
1.736000	0.005205
1.738000	0.006725
1.740000	0.007037
1.742000	0.006725
1.744000	0.005809
1.746000	0.004581
1.748000	0.003665
1.750000	0.003372
1.752000	0.003372
1.754000	0.004893
1.756000	0.006725
1.758000	0.007641
1.760000	0.008869
1.762000	0.010390
1.764000	0.010682
1.766000	0.012222
1.768000	0.011598
1.770000	0.011598
1.772000	0.011598
1.774000	0.011910
1.776000	0.012515
1.778000	0.013431
1.780000	0.014971
1.782000	0.016803
1.784000	0.017407
1.786000	0.018324
1.788000	0.018324
1.790000	0.018616
1.792000	0.018012
1.794000	0.016803
1.796000	0.015263
1.798000	0.013431
1.800000	0.012827
1.802000	0.012515
1.804000	0.013138
1.806000	0.014971
1.808000	0.016179
1.810000	0.016491
1.812000	0.017096
1.814000	0.017096
1.816000	0.016491
1.818000	0.015887
1.820000	0.015263
1.822000	0.015887
1.824000	0.016803
1.826000	0.019240
1.828000	0.023197
1.830000	0.028382
1.832000	0.032963
1.834000	0.037856
1.836000	0.041520
1.838000	0.043957
1.840000	0.044873
1.842000	0.043957
1.844000	0.041520
1.846000	0.038460
1.848000	0.033879
1.850000	0.029298
1.852000	0.023509
1.854000	0.019532
1.856000	0.014347
1.858000	0.010682
1.860000	0.007037
1.862000	0.004288
1.864000	0.001832
1.866000	-0.001520
1.868000	-0.004873
1.870000	-0.007934
1.872000	-0.009747
1.874000	-0.011579
1.876000	-0.012807
1.878000	-0.013723
1.880000	-0.013411
1.882000	-0.012495
1.884000	-0.010975
1.886000	-0.008538
1.888000	-0.005185
1.890000	-0.002729
1.892000	0.000624
1.894000	0.002749
1.896000	0.004581
1.898000	0.005497
1.900000	0.005809
1.902000	0.005205
1.904000	0.003977
1.906000	0.002456
1.908000	0.001228
1.910000	0.000916
1.912000	0.001540
1.914000	0.002144
1.916000	0.003977
1.918000	0.006413
1.920000	0.007953
1.922000	0.008246
1.924000	0.007037
1.926000	0.004893
1.928000	0.001832
1.930000	-0.001520
1.932000	-0.005478
1.934000	-0.008226
1.936000	-0.010370
1.938000	-0.010058
1.940000	-0.008850
1.942000	-0.006394
1.944000	-0.002437
1.946000	0.002144
1.948000	0.006121
1.950000	0.010078
1.952000	0.012827
1.954000	0.014347
1.956000	0.014347
1.958000	0.013431
1.960000	0.012515
1.962000	0.009766
1.964000	0.007641
1.966000	0.005205
1.968000	0.004288
1.970000	0.004581
1.972000	0.006121
1.974000	0.009162
1.976000	0.012827
1.978000	0.015575
1.980000	0.019240
1.982000	0.022281
1.984000	0.024113
1.986000	0.027173
1.988000	0.031131
1.990000	0.035419
1.992000	0.041209
1.994000	0.048830
1.996000	0.057388
1.998000	0.065926
2.000000	0.075380
2.002000	0.083314
2.004000	0.089435
2.006000	0.092788
2.008000	0.093392
2.010000	0.090351
2.012000	0.083938
2.014000	0.074464
2.016000	0.062573
2.018000	0.049454
2.020000	0.035107
2.022000	0.019844
2.024000	0.006121
2.026000	-0.005185
2.028000	-0.014035
2.030000	-0.020429
2.032000	-0.024717
2.034000	-0.026238
2.036000	-0.026238
2.038000	-0.025926
2.040000	-0.025926
2.042000	-0.026238
2.044000	-0.026550
2.046000	-0.026842
2.048000	-0.027154
2.050000	-0.026550
2.052000	-0.025634
2.054000	-0.024405
2.056000	-0.022261
2.058000	-0.020429
2.060000	-0.018908
2.062000	-0.017388
2.064000	-0.016160
2.066000	-0.015867
2.068000	-0.015867
2.070000	-0.017076
2.072000	-0.017992
2.074000	-0.017992
2.076000	-0.017992
2.078000	-0.017388
2.080000	-0.017388
2.082000	-0.017992
2.084000	-0.018596
2.086000	-0.020136
2.088000	-0.021053
2.090000	-0.021969
2.092000	-0.024405
2.094000	-0.025010
2.096000	-0.025926
2.098000	-0.025926
2.100000	-0.025010
2.102000	-0.022885
2.104000	-0.019220
2.106000	-0.011891
2.108000	0.000624
2.110000	0.019532
2.112000	0.045789
2.114000	0.079357
2.116000	0.121774
2.118000	0.171209
2.120000	0.226452
2.122000	0.281696
2.124000	0.326238
2.126000	0.351267
2.128000	0.349747
2.130000	0.319825
2.132000	0.263372
2.134000	0.185244
2.136000	0.094620
2.138000	0.000624
2.140000	-0.084834
2.142000	-0.151365
2.144000	-0.191637
2.146000	-0.204464
2.148000	-0.191637
2.150000	-0.161131
2.152000	-0.120526
2.154000	-0.078421
2.156000	-0.041793
2.158000	-0.014951
2.160000	0.001540
2.162000	0.009474
2.164000	0.008557
2.166000	0.003977
2.168000	-0.002729
2.170000	-0.009747
2.172000	-0.016160
2.174000	-0.021345
2.176000	-0.025322
2.178000	-0.028363
2.180000	-0.029591
2.182000	-0.029591
2.184000	-0.027758
2.186000	-0.025634
2.188000	-0.023177
2.190000	-0.019513
2.192000	-0.014327
2.194000	-0.009747
2.196000	-0.005789
2.198000	-0.002729
2.200000	-0.000604
2.202000	-0.000604
2.204000	0.000000
2.206000	-0.000604
2.208000	-0.000897
2.210000	-0.001813
2.212000	-0.002437
2.214000	-0.003041
2.216000	-0.003645
2.218000	-0.003353
2.220000	-0.003353
2.222000	-0.002125
2.224000	-0.000897
2.226000	0.000000
2.228000	0.001228
2.230000	0.003060
2.232000	0.004893
2.234000	0.007329
2.236000	0.008246
2.238000	0.008869
2.240000	0.010078
2.242000	0.010682
2.244000	0.010078
2.246000	0.009766
2.248000	0.009474
2.250000	0.009162
2.252000	0.008557
2.254000	0.007953
2.256000	0.007329
2.258000	0.007037
2.260000	0.005809
2.262000	0.004581
2.264000	0.003060
2.266000	0.000916
2.268000	-0.001209
2.270000	-0.003353
2.272000	-0.006394
2.274000	-0.008226
2.276000	-0.010663
2.278000	-0.011891
2.280000	-0.012203
2.282000	-0.010975
2.284000	-0.008226
2.286000	-0.004269
2.288000	0.000624
2.290000	0.006413
2.292000	0.012827
2.294000	0.019240
2.296000	0.024425
2.298000	0.029006
2.300000	0.031754
2.302000	0.033275
2.304000	0.031442
2.306000	0.027466
2.308000	0.023197
2.310000	0.016803
2.312000	0.011306
2.314000	0.005809
2.316000	0.000916
2.318000	-0.003645
2.320000	-0.007934
2.322000	-0.012495
2.324000	-0.016160
2.326000	-0.020136
2.328000	-0.023489
2.330000	-0.025322
2.332000	-0.027466
2.334000	-0.028674
2.336000	-0.028363
2.338000	-0.026550
2.340000	-0.023489
2.342000	-0.020741
2.344000	-0.017992
2.346000	-0.015556
2.348000	-0.014035
2.350000	-0.013723
2.352000	-0.013411
2.354000	-0.014035
2.356000	-0.014951
2.358000	-0.016160
2.360000	-0.016160
2.362000	-0.017388
2.364000	-0.018908
2.366000	-0.020429
2.368000	-0.022573
2.370000	-0.025322
2.372000	-0.027154
2.374000	-0.028363
2.376000	-0.028674
2.378000	-0.028363
2.380000	-0.027466
2.382000	-0.026550
2.384000	-0.024094
2.386000	-0.021969
2.388000	-0.019220
2.390000	-0.016784
2.392000	-0.014327
2.394000	-0.012495
2.396000	-0.011579
2.398000	-0.011287
2.400000	-0.011287
2.402000	-0.011579
2.404000	-0.012495
2.406000	-0.014327
2.408000	-0.015244
2.410000	-0.017388
2.412000	-0.018596
2.414000	-0.018596
2.416000	-0.018908
2.418000	-0.018596
2.420000	-0.017388
2.422000	-0.016160
2.424000	-0.014951
2.426000	-0.013411
2.428000	-0.012203
2.430000	-0.010975
2.432000	-0.010370
2.434000	-0.010370
2.436000	-0.010058
2.438000	-0.010370
2.440000	-0.010663
2.442000	-0.010370
2.444000	-0.010370
2.446000	-0.009454
2.448000	-0.007622
2.450000	-0.005478
2.452000	-0.003645
2.454000	-0.001813
2.456000	0.000312
2.458000	0.001228
2.460000	0.002144
2.462000	0.001228
2.464000	0.000312
2.466000	0.000000
2.468000	0.000624
2.470000	0.003372
2.472000	0.008869
2.474000	0.017096
2.476000	0.026569
2.478000	0.039064
2.480000	0.050975
2.482000	0.063782
2.484000	0.073860
2.486000	0.082710
2.488000	0.086979
2.490000	0.086062
2.492000	0.080877
2.494000	0.070195
2.496000	0.056160
2.498000	0.039688
2.500000	0.021988
2.502000	0.003665
2.504000	-0.011891
2.506000	-0.025926
2.508000	-0.036316
2.510000	-0.043938
2.512000	-0.047290
2.514000	-0.048519
2.516000	-0.045770
2.518000	-0.042105
2.520000	-0.037212
2.522000	-0.031735
2.524000	-0.026842
2.526000	-0.022261
2.528000	-0.018304
2.530000	-0.017076
2.532000	-0.017388
2.534000	-0.019825
2.536000	-0.022885
2.538000	-0.027758
2.540000	-0.032027
2.542000	-0.037212
2.544000	-0.040585
2.546000	-0.043333
2.548000	-0.043938
2.550000	-0.043021
2.552000	-0.042417
2.554000	-0.040585
2.556000	-0.039357
2.558000	-0.038441
2.560000	-0.037212
2.562000	-0.036316
2.564000	-0.036004
2.566000	-0.035088
2.568000	-0.033567
2.570000	-0.032651
2.572000	-0.030507
2.574000	-0.028070
2.576000	-0.025926
2.578000	-0.023801
2.580000	-0.021657
2.582000	-0.019220
2.584000	-0.012807
2.586000	-0.000292
2.588000	0.017407
2.590000	0.044269
2.592000	0.076296
2.594000	0.120253
2.596000	0.171832
2.598000	0.231637
2.600000	0.287485
2.602000	0.334795
2.604000	0.357368
2.606000	0.352788
2.608000	0.319532
2.610000	0.258499
2.612000	0.177934
2.614000	0.081501
2.616000	-0.012807
2.618000	-0.102222
2.620000	-0.167232
2.622000	-0.209045
2.624000	-0.221248
2.626000	-0.209045
2.628000	-0.180351
2.630000	-0.140370
2.632000	-0.101910
2.634000	-0.064990
2.636000	-0.037836
2.638000	-0.017992
2.640000	-0.007934
2.642000	-0.003645
2.644000	-0.004561
2.646000	-0.007934
2.648000	-0.012495
2.650000	-0.017388
2.652000	-0.020741
2.654000	-0.022261
2.656000	-0.022885
2.658000	-0.019825
2.660000	-0.015244
2.662000	-0.008850
2.664000	-0.002437
2.666000	0.002749
2.668000	0.006121
2.670000	0.008557
2.672000	0.009162
2.674000	0.008557
2.676000	0.004893
2.678000	-0.000897
2.680000	-0.006394
2.682000	-0.011891
2.684000	-0.015244
2.686000	-0.018304
2.688000	-0.018908
2.690000	-0.017992
2.692000	-0.015244
2.694000	-0.010370
2.696000	-0.005789
2.698000	0.000312
2.700000	0.005205
2.702000	0.010078
2.704000	0.014055
2.706000	0.016803
2.708000	0.017407
2.710000	0.016491
2.712000	0.014971
2.714000	0.013743
2.716000	0.012515
2.718000	0.011598
2.720000	0.011910
2.722000	0.012515
2.724000	0.015263
2.726000	0.018616
2.728000	0.021988
2.730000	0.025029
2.732000	0.026862
2.734000	0.025945
2.736000	0.023197
2.738000	0.017407
2.740000	0.011598
2.742000	0.003372
2.744000	-0.004269
2.746000	-0.012807
2.748000	-0.018596
2.750000	-0.022885
2.752000	-0.024717
2.754000	-0.024094
2.756000	-0.022573
2.758000	-0.019513
2.760000	-0.016160
2.762000	-0.010975
2.764000	-0.006101
2.766000	0.000916
2.768000	0.007329
2.770000	0.014659
2.772000	0.021676
2.774000	0.029006
2.776000	0.035712
2.778000	0.041209
2.780000	0.045789
2.782000	0.047310
2.784000	0.046394
2.786000	0.043353
2.788000	0.037856
2.790000	0.032359
2.792000	0.026257
2.794000	0.019532
2.796000	0.011598
2.798000	0.003977
2.800000	-0.003645
2.802000	-0.010058
2.804000	-0.014951
2.806000	-0.020136
2.808000	-0.024717
2.810000	-0.027758
2.812000	-0.029591
2.814000	-0.030195
2.816000	-0.030195
2.818000	-0.029903
2.820000	-0.027758
2.822000	-0.026550
2.824000	-0.024717
2.826000	-0.022261
2.828000	-0.019825
2.830000	-0.018304
2.832000	-0.017076
2.834000	-0.015556
2.836000	-0.014639
2.838000	-0.013119
2.840000	-0.012495
2.842000	-0.012495
2.844000	-0.013411
2.846000	-0.014639
2.848000	-0.016160
2.850000	-0.018596
2.852000	-0.022261
2.854000	-0.025322
2.856000	-0.027154
2.858000	-0.027154
2.860000	-0.026842
2.862000	-0.024717
2.864000	-0.021345
2.866000	-0.017700
2.868000	-0.013411
2.870000	-0.009454
2.872000	-0.007018
2.874000	-0.005185
2.876000	-0.003645
2.878000	-0.003041
2.880000	-0.002437
2.882000	-0.001520
2.884000	-0.000604
2.886000	-0.000604
2.888000	-0.001813
2.890000	-0.003645
2.892000	-0.006394
2.894000	-0.010663
2.896000	-0.014951
2.898000	-0.018908
2.900000	-0.021053
2.902000	-0.021657
2.904000	-0.020429
2.906000	-0.018304
2.908000	-0.014951
2.910000	-0.011579
2.912000	-0.007310
2.914000	-0.002125
2.916000	0.003977
2.918000	0.011306
2.920000	0.020760
2.922000	0.032047
2.924000	0.045478
2.926000	0.059513
2.928000	0.072339
2.930000	0.083938
2.932000	0.092788
2.934000	0.097973
2.936000	0.099201
2.938000	0.094912
2.940000	0.085770
2.942000	0.072339
2.944000	0.056160
2.946000	0.038148
2.948000	0.020448
2.950000	0.001832
2.952000	-0.015244
2.954000	-0.029279
2.956000	-0.039357
2.958000	-0.045166
2.960000	-0.047290
2.962000	-0.045770
2.964000	-0.042105
2.966000	-0.036316
2.968000	-0.030507
2.970000	-0.025322
2.972000	-0.022261
2.974000	-0.020741
2.976000	-0.021053
2.978000	-0.022573
2.980000	-0.025010
2.982000	-0.027758
2.984000	-0.030819
2.986000	-0.032943
2.988000	-0.034776
2.990000	-0.035692
2.992000	-0.036004
2.994000	-0.035400
2.996000	-0.033567
2.998000	-0.030819
3.000000	-0.026842
3.002000	-0.022573
3.004000	-0.019220
3.006000	-0.016160
3.008000	-0.014035
3.010000	-0.012807
3.012000	-0.013119
3.014000	-0.014639
3.016000	-0.017700
3.018000	-0.021053
3.020000	-0.025010
3.022000	-0.027466
3.024000	-0.029279
3.026000	-0.029903
3.028000	-0.028363
3.030000	-0.023177
3.032000	-0.012203
3.034000	0.006413
3.036000	0.033275
3.038000	0.068986
3.040000	0.114444
3.042000	0.169084
3.044000	0.228889
3.046000	0.289006
3.048000	0.340585
3.050000	0.372027
3.052000	0.375984
3.054000	0.348207
3.056000	0.290838
3.058000	0.210877
3.060000	0.115673
3.062000	0.015887
3.064000	-0.075984
3.066000	-0.150448
3.068000	-0.198967
3.070000	-0.218811
3.072000	-0.212690
3.074000	-0.186764
3.076000	-0.149532
3.078000	-0.108635
3.080000	-0.072320
3.082000	-0.042417
3.084000	-0.022261
3.086000	-0.009747
3.088000	-0.004269
3.090000	-0.003041
3.092000	-0.004269
3.094000	-0.006394
3.096000	-0.009747
3.098000	-0.012203
3.100000	-0.013411
3.102000	-0.013723
3.104000	-0.013119
3.106000	-0.012203
3.108000	-0.010058
3.110000	-0.008226
3.112000	-0.005478
3.114000	-0.003645
3.116000	-0.001520
3.118000	0.000624
3.120000	0.002144
3.122000	0.003665
3.124000	0.004893
3.126000	0.004893
3.128000	0.004893
3.130000	0.003665
3.132000	0.001832
3.134000	0.000916
3.136000	0.000000
3.138000	-0.000604
3.140000	-0.000292
3.142000	0.001228
3.144000	0.003060
3.146000	0.005809
3.148000	0.009162
3.150000	0.012222
3.152000	0.014347
3.154000	0.015575
3.156000	0.015263
3.158000	0.014347
3.160000	0.012827
3.162000	0.011306
3.164000	0.008869
3.166000	0.006725
3.168000	0.004893
3.170000	0.004581
3.172000	0.005205
3.174000	0.006725
3.176000	0.009766
3.178000	0.011910
3.180000	0.013743
3.182000	0.015887
3.184000	0.015887
3.186000	0.015575
3.188000	0.014347
3.190000	0.011910
3.192000	0.008246
3.194000	0.005497
3.196000	0.002456
3.198000	0.000624
3.200000	-0.001520
3.202000	-0.003041
3.204000	-0.003645
3.206000	-0.003041
3.208000	-0.001520
3.210000	0.001832
3.212000	0.006121
3.214000	0.011306
3.216000	0.017719
3.218000	0.025341
3.220000	0.032047
3.222000	0.038772
3.224000	0.043353
3.226000	0.046082
3.228000	0.046082
3.230000	0.044561
3.232000	0.040292
3.234000	0.034503
3.236000	0.026257
3.238000	0.017719
3.240000	0.008246
3.242000	-0.001209
3.244000	-0.010058
3.246000	-0.017700
3.248000	-0.024094
3.250000	-0.028986
3.252000	-0.032339
3.254000	-0.034172
3.256000	-0.034483
3.258000	-0.033567
3.260000	-0.032027
3.262000	-0.029903
3.264000	-0.028070
3.266000	-0.026238
3.268000	-0.025010
3.270000	-0.024717
3.272000	-0.025322
3.274000	-0.025322
3.276000	-0.025926
3.278000	-0.025634
3.280000	-0.026550
3.282000	-0.026842
3.284000	-0.027154
3.286000	-0.026842
3.288000	-0.025634
3.290000	-0.024094
3.292000	-0.021345
3.294000	-0.018304
3.296000	-0.015556
3.298000	-0.012807
3.300000	-0.010058
3.302000	-0.008226
3.304000	-0.007310
3.306000	-0.007622
3.308000	-0.008538
3.310000	-0.010663
3.312000	-0.013119
3.314000	-0.014951
3.316000	-0.015244
3.318000	-0.014951
3.320000	-0.013723
3.322000	-0.011891
3.324000	-0.009747
3.326000	-0.008538
3.328000	-0.007622
3.330000	-0.008850
3.332000	-0.010058
3.334000	-0.012495
3.336000	-0.015556
3.338000	-0.018596
3.340000	-0.021345
3.342000	-0.023489
3.344000	-0.024094
3.346000	-0.024094
3.348000	-0.022885
3.350000	-0.021053
3.352000	-0.019513
3.354000	-0.017388
3.356000	-0.015556
3.358000	-0.013119
3.360000	-0.011579
3.362000	-0.008538
3.364000	-0.005185
3.366000	0.000312
3.368000	0.007953
3.370000	0.018616
3.372000	0.031131
3.374000	0.044873
3.376000	0.060741
3.378000	0.076004
3.380000	0.089123
3.382000	0.101014
3.384000	0.108051
3.386000	0.109571
3.388000	0.104990
3.390000	0.093080
3.392000	0.076004
3.394000	0.054639
3.396000	0.031131
3.398000	0.007641
3.400000	-0.014327
3.402000	-0.033567
3.404000	-0.047895
3.406000	-0.057661
3.408000	-0.061326
3.410000	-0.061326
3.412000	-0.057973
3.414000	-0.052788
3.416000	-0.046686
3.418000	-0.041189
3.420000	-0.036920
3.422000	-0.033567
3.424000	-0.032027
3.426000	-0.031735
3.428000	-0.032027
3.430000	-0.033860
3.432000	-0.035692
3.434000	-0.038752
3.436000	-0.041189
3.438000	-0.042710
3.440000	-0.042710
3.442000	-0.041793
3.444000	-0.040585
3.446000	-0.037836
3.448000	-0.035088
3.450000	-0.032027
3.452000	-0.029903
3.454000	-0.027466
3.456000	-0.026238
3.458000	-0.025322
3.460000	-0.024717
3.462000	-0.024094
3.464000	-0.023489
3.466000	-0.022573
3.468000	-0.021969
3.470000	-0.021969
3.472000	-0.021345
3.474000	-0.021053
3.476000	-0.019825
3.478000	-0.014951
3.480000	-0.003957
3.482000	0.014347
3.484000	0.042437
3.486000	0.079961
3.488000	0.128791
3.490000	0.186472
3.492000	0.250858
3.494000	0.314347
3.496000	0.365302
3.498000	0.392768
3.500000	0.388187
3.502000	0.352788
3.504000	0.286881
3.506000	0.197466
3.508000	0.094308
3.510000	-0.010975
3.512000	-0.104366
3.514000	-0.176686
3.516000	-0.220624
3.518000	-0.234366
3.520000	-0.220624
3.522000	-0.188889
3.524000	-0.147076
3.526000	-0.104971
3.528000	-0.069259
3.530000	-0.041793
3.532000	-0.024717
3.534000	-0.015556
3.536000	-0.013119
3.538000	-0.014035
3.540000	-0.017700
3.542000	-0.021345
3.544000	-0.024094
3.546000	-0.026238
3.548000	-0.026238
3.550000	-0.025634
3.552000	-0.024405
3.554000	-0.021969
3.556000	-0.018908
3.558000	-0.016160
3.560000	-0.014035
3.562000	-0.011891
3.564000	-0.010058
3.566000	-0.009142
3.568000	-0.007934
3.570000	-0.007018
3.572000	-0.005789
3.574000	-0.004873
3.576000	-0.003957
3.578000	-0.002437
3.580000	-0.000292
3.582000	0.001540
3.584000	0.002749
3.586000	0.004288
3.588000	0.005809
3.590000	0.006413
3.592000	0.006725
3.594000	0.005497
3.596000	0.003665
3.598000	0.001832
3.600000	-0.000897
3.602000	-0.003353
3.604000	-0.006101
3.606000	-0.008226
3.608000	-0.009454
3.610000	-0.010370
3.612000	-0.009747
3.614000	-0.008850
3.616000	-0.007622
3.618000	-0.004873
3.620000	-0.002729
3.622000	-0.000292
3.624000	0.000916
3.626000	0.002749
3.628000	0.004581
3.630000	0.004581
3.632000	0.005205
3.634000	0.005205
3.636000	0.004893
3.638000	0.004288
3.640000	0.003665
3.642000	0.003665
3.644000	0.003665
3.646000	0.004288
3.648000	0.004288
3.650000	0.004288
3.652000	0.004581
3.654000	0.005205
3.656000	0.006413
3.658000	0.007953
3.660000	0.010994
3.662000	0.015263
3.664000	0.019844
3.666000	0.024425
3.668000	0.030838
3.670000	0.034795
3.672000	0.038460
3.674000	0.039981
3.676000	0.039376
3.678000	0.036316
3.680000	0.032359
3.682000	0.025341
3.684000	0.018324
3.686000	0.010994
3.688000	0.004581
3.690000	-0.001813
3.692000	-0.007310
3.694000	-0.012495
3.696000	-0.016784
3.698000	-0.021053
3.700000	-0.024717
3.702000	-0.027758
3.704000	-0.030507
3.706000	-0.031111
3.708000	-0.031735
3.710000	-0.031111
3.712000	-0.030195
3.714000	-0.028070
3.716000	-0.026550
3.718000	-0.024094
3.720000	-0.022261
3.722000	-0.020429
3.724000	-0.018908
3.726000	-0.017700
3.728000	-0.015556
3.730000	-0.013411
3.732000	-0.010663
3.734000	-0.007018
3.736000	-0.003957
3.738000	-0.001813
3.740000	-0.001209
3.742000	-0.001209
3.744000	-0.002729
3.746000	-0.004269
3.748000	-0.008226
3.750000	-0.011891
3.752000	-0.016160
3.754000	-0.019220
3.756000	-0.021657
3.758000	-0.023177
3.760000	-0.022261
3.762000	-0.021345
3.764000	-0.019220
3.766000	-0.015867
3.768000	-0.012495
3.770000	-0.008226
3.772000	-0.004561
3.774000	-0.001813
3.776000	0.000916
3.778000	0.003060
3.780000	0.003372
3.782000	0.003060
3.784000	0.001540
3.786000	-0.000292
3.788000	-0.001209
3.790000	0.000000
3.792000	0.003977
3.794000	0.010682
3.796000	0.020448
3.798000	0.033275
3.800000	0.047622
3.802000	0.062573
3.804000	0.076608
3.806000	0.087602
3.808000	0.094620
3.810000	0.096140
3.812000	0.092476
3.814000	0.083021
3.816000	0.069279
3.818000	0.052203
3.820000	0.034795
3.822000	0.016803
3.824000	0.000916
3.826000	-0.013119
3.828000	-0.024717
3.830000	-0.033255
3.832000	-0.038441
3.834000	-0.040877
3.836000	-0.041189
3.838000	-0.041793
3.840000	-0.041189
3.842000	-0.040273
3.844000	-0.039961
3.846000	-0.040877
3.848000	-0.041189
3.850000	-0.041793
3.852000	-0.042417
3.854000	-0.042710
3.856000	-0.042710
3.858000	-0.041793
3.860000	-0.039961
3.862000	-0.037524
3.864000	-0.034483
3.866000	-0.031111
3.868000	-0.028070
3.870000	-0.025634
3.872000	-0.023177
3.874000	-0.021969
3.876000	-0.021969
3.878000	-0.022261
3.880000	-0.023801
3.882000	-0.026238
3.884000	-0.028674
3.886000	-0.031423
3.888000	-0.034172
3.890000	-0.036004
3.892000	-0.036920
3.894000	-0.036920
3.896000	-0.036004
3.898000	-0.033860
3.900000	-0.030819
3.902000	-0.026842
3.904000	-0.021053
3.906000	-0.010663
3.908000	0.005205
3.910000	0.026569
3.912000	0.054639
3.914000	0.090039
3.916000	0.133372
3.918000	0.183411
3.920000	0.236530
3.922000	0.282904
3.924000	0.316472
3.926000	0.329298
3.928000	0.314035
3.930000	0.273743
3.932000	0.208148
3.934000	0.126043
3.936000	0.034795
3.938000	-0.054620
3.940000	-0.130000
3.942000	-0.185224
3.944000	-0.213314
3.946000	-0.216062
3.948000	-0.196823
3.950000	-0.163567
3.952000	-0.124815
3.954000	-0.086355
3.956000	-0.054620
3.958000	-0.032027
3.960000	-0.017700
3.962000	-0.011579
3.964000	-0.010663
3.966000	-0.013119
3.968000	-0.017388
3.970000	-0.021657
3.972000	-0.025322
3.974000	-0.027758
3.976000	-0.029591
3.978000	-0.030195
3.980000	-0.030195
3.982000	-0.029279
3.984000	-0.028986
3.986000	-0.026238
3.988000	-0.023489
3.990000	-0.020136
3.992000	-0.017388
3.994000	-0.014951
3.996000	-0.012807
3.998000	-0.011579
4.000000	-0.010663
4.002000	-0.011287
4.004000	-0.011891
4.006000	-0.012807
4.008000	-0.014035
4.010000	-0.014639
4.012000	-0.014951
4.014000	-0.013723
4.016000	-0.011891
4.018000	-0.010370
4.020000	-0.009454
4.022000	-0.008850
4.024000	-0.007622
4.026000	-0.006394
4.028000	-0.005185
4.030000	-0.004873
4.032000	-0.003957
4.034000	-0.003041
4.036000	-0.002125
4.038000	-0.000897
4.040000	0.000312
4.042000	0.000624
4.044000	0.000000
4.046000	-0.001520
4.048000	-0.003353
4.050000	-0.005478
4.052000	-0.007310
4.054000	-0.009142
4.056000	-0.010058
4.058000	-0.010663
4.060000	-0.010975
4.062000	-0.010663
4.064000	-0.010663
4.066000	-0.010663
4.068000	-0.011287
4.070000	-0.012807
4.072000	-0.014951
4.074000	-0.016784
4.076000	-0.018596
4.078000	-0.019220
4.080000	-0.018596
4.082000	-0.015556
4.084000	-0.011287
4.086000	-0.005185
4.088000	0.001228
4.090000	0.007953
4.092000	0.014971
4.094000	0.021365
4.096000	0.026862
4.098000	0.029298
4.100000	0.028694
4.102000	0.025945
4.104000	0.020448
4.106000	0.012515
4.108000	0.003372
4.110000	-0.005789
4.112000	-0.016160
4.114000	-0.025322
4.116000	-0.032339
4.118000	-0.037212
4.120000	-0.040585
4.122000	-0.041793
4.124000	-0.042710
4.126000	-0.041793
4.128000	-0.040877
4.130000	-0.040585
4.132000	-0.040585
4.134000	-0.041501
4.136000	-0.043333
4.138000	-0.044542
4.140000	-0.046686
4.142000	-0.048811
4.144000	-0.050039
4.146000	-0.050955
4.148000	-0.050351
4.150000	-0.050039
4.152000	-0.048519
4.154000	-0.047895
4.156000	-0.046062
4.158000	-0.043626
4.160000	-0.041501
4.162000	-0.038441
4.164000	-0.036004
4.166000	-0.032943
4.168000	-0.031423
4.170000	-0.030819
4.172000	-0.031735
4.174000	-0.033255
4.176000	-0.037212
4.178000	-0.041501
4.180000	-0.046374
4.182000	-0.050643
4.184000	-0.053392
4.186000	-0.054620
4.188000	-0.054016
4.190000	-0.051871
4.192000	-0.048811
4.194000	-0.045458
4.196000	-0.042417
4.198000	-0.039669
4.200000	-0.036608
4.202000	-0.034172
4.204000	-0.031423
4.206000	-0.030195
4.208000	-0.028363
4.210000	-0.026842
4.212000	-0.025926
4.214000	-0.025010
4.216000	-0.025010
4.218000	-0.024717
4.220000	-0.025010
4.222000	-0.026238
4.224000	-0.027758
4.226000	-0.028674
4.228000	-0.030195
4.230000	-0.031111
4.232000	-0.032651
4.234000	-0.034483
4.236000	-0.035400
4.238000	-0.036316
4.240000	-0.036316
4.242000	-0.035692
4.244000	-0.035088
4.246000	-0.034776
4.248000	-0.034172
4.250000	-0.034172
4.252000	-0.033860
4.254000	-0.033860
4.256000	-0.033860
4.258000	-0.034172
4.260000	-0.033860
4.262000	-0.032943
4.264000	-0.031423
4.266000	-0.029279
4.268000	-0.027154
4.270000	-0.024405
4.272000	-0.022261
4.274000	-0.021345
4.276000	-0.020429
4.278000	-0.020741
4.280000	-0.021657
4.282000	-0.023177
4.284000	-0.023801
4.286000	-0.024405
4.288000	-0.024094
4.290000	-0.024405
4.292000	-0.024405
4.294000	-0.024405
4.296000	-0.025010
4.298000	-0.025634
4.300000	-0.027154
4.302000	-0.028674
4.304000	-0.030195
4.306000	-0.031423
4.308000	-0.032027
4.310000	-0.031111
4.312000	-0.029279
4.314000	-0.026842
4.316000	-0.025322
4.318000	-0.023177
4.320000	-0.021657
4.322000	-0.019220
4.324000	-0.016784
4.326000	-0.014639
4.328000	-0.011287
4.330000	-0.007018
4.332000	-0.000897
4.334000	0.007329
4.336000	0.017407
4.338000	0.028694
4.340000	0.041209
4.342000	0.051891
4.344000	0.061657
4.346000	0.069591
4.348000	0.074172
4.350000	0.075380
4.352000	0.071735
4.354000	0.063177
4.356000	0.050975
4.358000	0.035419
4.360000	0.017719
4.362000	-0.000604
4.364000	-0.017700
4.366000	-0.033255
4.368000	-0.045770
4.370000	-0.055828
4.372000	-0.061033
4.374000	-0.062554
4.376000	-0.061326
4.378000	-0.057661
4.380000	-0.052788
4.382000	-0.048207
4.384000	-0.044250
4.386000	-0.041501
4.388000	-0.040273
4.390000	-0.040877
4.392000	-0.042105
4.394000	-0.044854
4.396000	-0.048519
4.398000	-0.052476
4.400000	-0.055536
4.402000	-0.057973
4.404000	-0.059493
4.406000	-0.060117
4.408000	-0.059493
4.410000	-0.057661
4.412000	-0.055224
4.414000	-0.052788
4.416000	-0.049123
4.418000	-0.045770
4.420000	-0.041501
4.422000	-0.037524
4.424000	-0.035088
4.426000	-0.032027
4.428000	-0.029591
4.430000	-0.028070
4.432000	-0.026842
4.434000	-0.025926
4.436000	-0.025322
4.438000	-0.024717
4.440000	-0.024094
4.442000	-0.023489
4.444000	-0.024094
4.446000	-0.025010
4.448000	-0.025322
4.450000	-0.022261
4.452000	-0.013723
4.454000	0.001832
4.456000	0.025029
4.458000	0.056764
4.460000	0.097368
4.462000	0.145283
4.464000	0.196842
4.466000	0.245068
4.468000	0.279552
4.470000	0.292359
4.472000	0.278635
4.474000	0.239571
4.476000	0.178538
4.478000	0.102242
4.480000	0.019240
4.482000	-0.061637
4.484000	-0.129084
4.486000	-0.176998
4.488000	-0.200799
4.490000	-0.201715
4.492000	-0.183392
4.494000	-0.153489
4.496000	-0.118402
4.498000	-0.084834
4.500000	-0.056745
4.502000	-0.036316
4.504000	-0.023177
4.506000	-0.014639
4.508000	-0.012203
4.510000	-0.011891
4.512000	-0.012807
4.514000	-0.013723
4.516000	-0.014035
4.518000	-0.014035
4.520000	-0.013119
4.522000	-0.011579
4.524000	-0.010058
4.526000	-0.009747
4.528000	-0.009142
4.530000	-0.008538
4.532000	-0.008850
4.534000	-0.008226
4.536000	-0.008538
4.538000	-0.008226
4.540000	-0.007018
4.542000	-0.005185
4.544000	-0.003957
4.546000	-0.002125
4.548000	-0.001209
4.550000	-0.001209
4.552000	-0.001520
4.554000	-0.002125
4.556000	-0.001813
4.558000	-0.002125
4.560000	-0.001813
4.562000	-0.002437
4.564000	-0.002729
4.566000	-0.003041
4.568000	-0.002729
4.570000	-0.002125
4.572000	-0.001520
4.574000	-0.001520
4.576000	-0.000897
4.578000	0.000916
4.580000	0.002144
4.582000	0.004581
4.584000	0.007037
4.586000	0.008869
4.588000	0.010994
4.590000	0.010682
4.592000	0.010390
4.594000	0.008869
4.596000	0.006413
4.598000	0.003665
4.600000	0.000624
4.602000	-0.001813
4.604000	-0.004561
4.606000	-0.007018
4.608000	-0.009142
4.610000	-0.010975
4.612000	-0.012495
4.614000	-0.012495
4.616000	-0.012203
4.618000	-0.011891
4.620000	-0.012203
4.622000	-0.012203
4.624000	-0.012495
4.626000	-0.012203
4.628000	-0.012203
4.630000	-0.011287
4.632000	-0.010663
4.634000	-0.009142
4.636000	-0.005789
4.638000	-0.000897
4.640000	0.005809
4.642000	0.012515
4.644000	0.019532
4.646000	0.026257
4.648000	0.031131
4.650000	0.032671
4.652000	0.030526
4.654000	0.026569
4.656000	0.021072
4.658000	0.014055
4.660000	0.005809
4.662000	-0.002437
4.664000	-0.009454
4.666000	-0.015244
4.668000	-0.019513
4.670000	-0.021969
4.672000	-0.022573
4.674000	-0.022573
4.676000	-0.022261
4.678000	-0.022261
4.680000	-0.021345
4.682000	-0.020429
4.684000	-0.019220
4.686000	-0.018304
4.688000	-0.017992
4.690000	-0.017700
4.692000	-0.018596
4.694000	-0.019220
4.696000	-0.019825
4.698000	-0.020136
4.700000	-0.021053
4.702000	-0.021053
4.704000	-0.021657
4.706000	-0.021657
4.708000	-0.021053
4.710000	-0.020429
4.712000	-0.020429
4.714000	-0.020429
4.716000	-0.020429
4.718000	-0.019825
4.720000	-0.019825
4.722000	-0.018908
4.724000	-0.018304
4.726000	-0.017388
4.728000	-0.016472
4.730000	-0.015556
4.732000	-0.014951
4.734000	-0.015244
4.736000	-0.016784
4.738000	-0.018596
4.740000	-0.020429
4.742000	-0.022261
4.744000	-0.023801
4.746000	-0.025926
4.748000	-0.026550
4.750000	-0.025926
4.752000	-0.025010
4.754000	-0.022885
4.756000	-0.020429
4.758000	-0.017992
4.760000	-0.015244
4.762000	-0.013411
4.764000	-0.010975
4.766000	-0.009747
4.768000	-0.008226
4.770000	-0.007934
4.772000	-0.008538
4.774000	-0.008850
4.776000	-0.009747
4.778000	-0.010975
4.780000	-0.011287
4.782000	-0.011891
4.784000	-0.013119
4.786000	-0.014639
4.788000	-0.016784
4.790000	-0.018596
4.792000	-0.020136
4.794000	-0.022261
4.796000	-0.023489
4.798000	-0.024717
4.800000	-0.025634
4.802000	-0.025926
4.804000	-0.024405
4.806000	-0.022885
4.808000	-0.021969
4.810000	-0.020429
4.812000	-0.018908
4.814000	-0.017700
4.816000	-0.015867
4.818000	-0.014639
4.820000	-0.012807
4.822000	-0.011287
4.824000	-0.008538
4.826000	-0.006101
4.828000	-0.003645
4.830000	-0.002729
4.832000	-0.002125
4.834000	-0.002125
4.836000	-0.002729
4.838000	-0.004269
4.840000	-0.005185
4.842000	-0.007018
4.844000	-0.008226
4.846000	-0.009142
4.848000	-0.008850
4.850000	-0.007934
4.852000	-0.005789
4.854000	-0.001813
4.856000	0.003977
4.858000	0.011306
4.860000	0.020448
4.862000	0.030838
4.864000	0.042437
4.866000	0.054932
4.868000	0.066842
4.870000	0.077524
4.872000	0.086062
4.874000	0.091248
4.876000	0.093704
4.878000	0.090643
4.880000	0.082710
4.882000	0.069279
4.884000	0.052807
4.886000	0.033879
4.888000	0.013431
4.890000	-0.006706
4.892000	-0.024717
4.894000	-0.039669
4.896000	-0.050351
4.898000	-0.056452
4.900000	-0.058285
4.902000	-0.056745
4.904000	-0.053099
4.906000	-0.048811
4.908000	-0.044854
4.910000	-0.041189
4.912000	-0.037836
4.914000	-0.035088
4.916000	-0.032943
4.918000	-0.031735
4.920000	-0.031111
4.922000	-0.030819
4.924000	-0.029903
4.926000	-0.029591
4.928000	-0.029591
4.930000	-0.031423
4.932000	-0.032943
4.934000	-0.034776
4.936000	-0.037212
4.938000	-0.038441
4.940000	-0.039669
4.942000	-0.039669
4.944000	-0.039357
4.946000	-0.039669
4.948000	-0.039045
4.950000	-0.038129
4.952000	-0.038441
4.954000	-0.038441
4.956000	-0.038752
4.958000	-0.038441
4.960000	-0.038129
4.962000	-0.036316
4.964000	-0.033567
4.966000	-0.029903
4.968000	-0.026238
4.970000	-0.021345
4.972000	-0.015867
4.974000	-0.009747
4.976000	-0.000292
4.978000	0.014659
4.980000	0.034503
4.982000	0.060741
4.984000	0.094912
4.986000	0.137037
4.988000	0.185556
4.990000	0.235906
4.992000	0.280156
4.994000	0.308538
4.996000	0.313119
4.998000	0.289922
5.000000	0.240487
5.002000	0.168772
5.004000	0.083938
5.006000	-0.006394
5.008000	-0.089708
5.010000	-0.156842
5.012000	-0.200487
5.014000	-0.216062
5.016000	-0.206296
5.018000	-0.177914
5.020000	-0.138850
5.022000	-0.097641
5.024000	-0.061326
5.026000	-0.033255
5.028000	-0.015244
5.030000	-0.006394
5.032000	-0.003957
5.034000	-0.006706
5.036000	-0.011287
5.038000	-0.014951
5.040000	-0.018304
5.042000	-0.020136
5.044000	-0.018596
5.046000	-0.016160
5.048000	-0.013119
5.050000	-0.008850
5.052000	-0.005185
5.054000	-0.002437
5.056000	0.000312
5.058000	0.001228
5.060000	0.001540
5.062000	0.001832
5.064000	0.002144
5.066000	0.001832
5.068000	0.002144
5.070000	0.002749
5.072000	0.004581
5.074000	0.005497
5.076000	0.006413
5.078000	0.007037
5.080000	0.007329
5.082000	0.006413
5.084000	0.005809
5.086000	0.003977
5.088000	0.002144
5.090000	-0.000604
5.092000	-0.003041
5.094000	-0.005478
5.096000	-0.006706
5.098000	-0.007018
5.100000	-0.006706
5.102000	-0.006101
5.104000	-0.004269
5.106000	-0.001209
5.108000	0.001832
5.110000	0.005205
5.112000	0.008557
5.114000	0.012222
5.116000	0.014971
5.118000	0.017096
5.120000	0.018928
5.122000	0.018324
5.124000	0.017407
5.126000	0.015575
5.128000	0.014347
5.130000	0.011910
5.132000	0.008869
5.134000	0.006413
5.136000	0.003372
5.138000	0.001540
5.140000	-0.001520
5.142000	-0.003645
5.144000	-0.005789
5.146000	-0.008538
5.148000	-0.010975
5.150000	-0.012203
5.152000	-0.012495
5.154000	-0.011891
5.156000	-0.009454
5.158000	-0.005185
5.160000	0.001228
5.162000	0.008557
5.164000	0.016491
5.166000	0.023821
5.168000	0.031131
5.170000	0.036316
5.172000	0.039981
5.174000	0.040897
5.176000	0.039376
5.178000	0.035107
5.180000	0.028382
5.182000	0.021365
5.184000	0.013743
5.186000	0.006121
5.188000	-0.000897
5.190000	-0.006101
5.192000	-0.010663
5.194000	-0.014035
5.196000	-0.016472
5.198000	-0.017076
5.200000	-0.017076
5.202000	-0.017076
5.204000	-0.017076
5.206000	-0.015867
5.208000	-0.014327
5.210000	-0.013119
5.212000	-0.012807
5.214000	-0.012495
5.216000	-0.012807
5.218000	-0.013411
5.220000	-0.014639
5.222000	-0.016472
5.224000	-0.019220
5.226000	-0.021053
5.228000	-0.021345
5.230000	-0.021053
5.232000	-0.019825
5.234000	-0.017076
5.236000	-0.014035
5.238000	-0.011287
5.240000	-0.008538
5.242000	-0.007018
5.244000	-0.005185
5.246000	-0.004873
5.248000	-0.005478
5.250000	-0.007310
5.252000	-0.008538
5.254000	-0.009454
5.256000	-0.009142
5.258000	-0.008850
5.260000	-0.008226
5.262000	-0.007018
5.264000	-0.006101
5.266000	-0.005185
5.268000	-0.004561
5.270000	-0.003957
5.272000	-0.003353
5.274000	-0.003041
5.276000	-0.003041
5.278000	-0.002729
5.280000	-0.001813
5.282000	-0.000292
5.284000	0.000624
5.286000	0.000624
5.288000	0.001540
5.290000	0.001540
5.292000	0.001540
5.294000	0.000312
5.296000	-0.001813
5.298000	-0.004873
5.300000	-0.007622
5.302000	-0.010663
5.304000	-0.013411
5.306000	-0.015556
5.308000	-0.016784
5.310000	-0.017076
5.312000	-0.016160
5.314000	-0.013411
5.316000	-0.010663
5.318000	-0.007622
5.320000	-0.004269
5.322000	-0.001520
5.324000	0.001540
5.326000	0.004288
5.328000	0.006413
5.330000	0.008869
5.332000	0.010994
5.334000	0.012515
5.336000	0.013431
5.338000	0.013431
5.340000	0.013743
5.342000	0.014659
5.344000	0.016491
5.346000	0.018324
5.348000	0.021365
5.350000	0.026257
5.352000	0.032671
5.354000	0.041209
5.356000	0.050663
5.358000	0.060429
5.360000	0.069279
5.362000	0.077212
5.364000	0.083626
5.366000	0.088519
5.368000	0.089435
5.370000	0.086062
5.372000	0.078129
5.374000	0.066530
5.376000	0.051287
5.378000	0.033275
5.380000	0.014971
5.382000	-0.003957
5.384000	-0.021053
5.386000	-0.035692
5.388000	-0.046062
5.390000	-0.051871
5.392000	-0.054308
5.394000	-0.053392
5.396000	-0.050351
5.398000	-0.045770
5.400000	-0.039669
5.402000	-0.033255
5.404000	-0.027466
5.406000	-0.022573
5.408000	-0.018596
5.410000	-0.015556
5.412000	-0.014035
5.414000	-0.014327
5.416000	-0.016160
5.418000	-0.018908
5.420000	-0.022261
5.422000	-0.025010
5.424000	-0.028674
5.426000	-0.032027
5.428000	-0.034776
5.430000	-0.036920
5.432000	-0.038441
5.434000	-0.039357
5.436000	-0.039961
5.438000	-0.039357
5.440000	-0.038129
5.442000	-0.036004
5.444000	-0.033567
5.446000	-0.030195
5.448000	-0.026842
5.450000	-0.023489
5.452000	-0.021657
5.454000	-0.019825
5.456000	-0.018304
5.458000	-0.018304
5.460000	-0.016784
5.462000	-0.012495
5.464000	-0.003041
5.466000	0.013743
5.468000	0.037856
5.470000	0.069591
5.472000	0.111092
5.474000	0.160838
5.476000	0.216686
5.478000	0.272846
5.480000	0.318012
5.482000	0.342729
5.484000	0.339669
5.486000	0.307018
5.488000	0.248109
5.490000	0.168168
5.492000	0.075088
5.494000	-0.019513
5.496000	-0.104659
5.498000	-0.169981
5.500000	-0.209045
5.502000	-0.219708
5.504000	-0.204464
5.506000	-0.172417
5.508000	-0.131520
5.510000	-0.091852
5.512000	-0.056452
5.514000	-0.030507
5.516000	-0.013723
5.518000	-0.005478
5.520000	-0.003957
5.522000	-0.006706
5.524000	-0.010663
5.526000	-0.014639
5.528000	-0.017992
5.530000	-0.019825
5.532000	-0.020741
5.534000	-0.020136
5.536000	-0.018596
5.538000	-0.016784
5.540000	-0.014327
5.542000	-0.011287
5.544000	-0.007622
5.546000	-0.004269
5.548000	-0.001520
5.550000	0.000624
5.552000	0.002456
5.554000	0.003060
5.556000	0.002749
5.558000	0.003060
5.560000	0.002749
5.562000	0.002144
5.564000	0.000916
5.566000	0.000624
5.568000	-0.000292
5.570000	-0.000292
5.572000	0.000000
5.574000	-0.000292
5.576000	0.000000
5.578000	0.000312
5.580000	0.000624
5.582000	0.001540
5.584000	0.002456
5.586000	0.003372
5.588000	0.004893
5.590000	0.005497
5.592000	0.006413
5.594000	0.007641
5.596000	0.009162
5.598000	0.009766
5.600000	0.009162
5.602000	0.008869
5.604000	0.008246
5.606000	0.008246
5.608000	0.007037
5.610000	0.005809
5.612000	0.004893
5.614000	0.003977
5.616000	0.002749
5.618000	0.002456
5.620000	0.002749
5.622000	0.002144
5.624000	0.001540
5.626000	0.000312
5.628000	-0.001209
5.630000	-0.003041
5.632000	-0.005185
5.634000	-0.008538
5.636000	-0.011891
5.638000	-0.014035
5.640000	-0.014327
5.642000	-0.012807
5.644000	-0.010370
5.646000	-0.006101
5.648000	-0.000604
5.650000	0.006725
5.652000	0.014971
5.654000	0.022904
5.656000	0.029610
5.658000	0.033275
5.660000	0.034503
5.662000	0.032963
5.664000	0.029006
5.666000	0.023509
5.668000	0.015887
5.670000	0.008246
5.672000	0.000916
5.674000	-0.006706
5.676000	-0.013411
5.678000	-0.018304
5.680000	-0.022261
5.682000	-0.024094
5.684000	-0.024717
5.686000	-0.024717
5.688000	-0.024405
5.690000	-0.023801
5.692000	-0.022885
5.694000	-0.022573
5.696000	-0.021969
5.698000	-0.022885
5.700000	-0.024405
5.702000	-0.026550
5.704000	-0.028986
5.706000	-0.029903
5.708000	-0.030819
5.710000	-0.031423
5.712000	-0.030819
5.714000	-0.030507
5.716000	-0.029591
5.718000	-0.029591
5.720000	-0.030195
5.722000	-0.030507
5.724000	-0.031423
5.726000	-0.032339
5.728000	-0.032651
5.730000	-0.032339
5.732000	-0.031423
5.734000	-0.028986
5.736000	-0.025634
5.738000	-0.021657
5.740000	-0.017700
5.742000	-0.014327
5.744000	-0.011579
5.746000	-0.009454
5.748000	-0.007622
5.750000	-0.007622
5.752000	-0.009454
5.754000	-0.011287
5.756000	-0.013723
5.758000	-0.016160
5.760000	-0.018908
5.762000	-0.021345
5.764000	-0.023177
5.766000	-0.025010
5.768000	-0.025926
5.770000	-0.025926
5.772000	-0.025322
5.774000	-0.023489
5.776000	-0.020741
5.778000	-0.015867
5.780000	-0.010975
5.782000	-0.006706
5.784000	-0.003041
5.786000	0.000312
5.788000	0.003372
5.790000	0.007037
5.792000	0.010682
5.794000	0.016179
5.796000	0.023197
5.798000	0.032671
5.800000	0.043645
5.802000	0.055244
5.804000	0.066530
5.806000	0.075088
5.808000	0.082398
5.810000	0.085458
5.812000	0.083626
5.814000	0.076608
5.816000	0.064698
5.818000	0.049747
5.820000	0.032359
5.822000	0.014347
5.824000	-0.003041
5.826000	-0.020136
5.828000	-0.034776
5.830000	-0.045770
5.832000	-0.053392
5.834000	-0.057661
5.836000	-0.059201
5.838000	-0.057661
5.840000	-0.056452
5.842000	-0.054620
5.844000	-0.052183
5.846000	-0.050039
5.848000	-0.047602
5.850000	-0.045458
5.852000	-0.044250
5.854000	-0.043021
5.856000	-0.041793
5.858000	-0.041189
5.860000	-0.040585
5.862000	-0.039961
5.864000	-0.039961
5.866000	-0.039669
5.868000	-0.038129
5.870000	-0.036316
5.872000	-0.035088
5.874000	-0.033860
5.876000	-0.032943
5.878000	-0.032027
5.880000	-0.030507
5.882000	-0.030507
5.884000	-0.031735
5.886000	-0.032651
5.888000	-0.034776
5.890000	-0.036004
5.892000	-0.036920
5.894000	-0.038129
5.896000	-0.038129
5.898000	-0.037212
5.900000	-0.032027
5.902000	-0.021345
5.904000	-0.003041
5.906000	0.023197
5.908000	0.058304
5.910000	0.101637
5.912000	0.155029
5.914000	0.214542
5.916000	0.274971
5.918000	0.325634
5.920000	0.356140
5.922000	0.357973
5.924000	0.329591
5.926000	0.272534
5.928000	0.192261
5.930000	0.097661
5.932000	-0.000897
5.934000	-0.092144
5.936000	-0.164172
5.938000	-0.209045
5.940000	-0.224912
5.942000	-0.213918
5.944000	-0.184016
5.946000	-0.143723
5.948000	-0.102534
5.950000	-0.067739
5.952000	-0.042710
5.954000	-0.027758
5.956000	-0.021657
5.958000	-0.022261
5.960000	-0.026550
5.962000	-0.033255
5.964000	-0.038129
5.966000	-0.041501
5.968000	-0.041793
5.970000	-0.039045
5.972000	-0.034483
5.974000	-0.028363
5.976000	-0.021345
5.978000	-0.014639
5.980000	-0.007018
5.982000	-0.000604
5.984000	0.003977
5.986000	0.007037
5.988000	0.007037
5.990000	0.005497
5.992000	0.002456
5.994000	-0.001813
5.996000	-0.007018
5.998000	-0.011287
6.000000	-0.014951
6.002000	-0.016784
6.004000	-0.017076
6.006000	-0.015556
6.008000	-0.013119
6.010000	-0.010370
6.012000	-0.006706
6.014000	-0.003353
6.016000	-0.000604
6.018000	0.001540
6.020000	0.003665
6.022000	0.005809
6.024000	0.007037
6.026000	0.007953
6.028000	0.009162
6.030000	0.010682
6.032000	0.011598
6.034000	0.012827
6.036000	0.013138
6.038000	0.012827
6.040000	0.012827
6.042000	0.011910
6.044000	0.011306
6.046000	0.010078
6.048000	0.009474
6.050000	0.009474
6.052000	0.010078
6.054000	0.010994
6.056000	0.012222
6.058000	0.013743
6.060000	0.015263
6.062000	0.016803
6.064000	0.017719
6.066000	0.016803
6.068000	0.015575
6.070000	0.014347
6.072000	0.012515
6.074000	0.011598
6.076000	0.010994
6.078000	0.011598
6.080000	0.013138
6.082000	0.016179
6.084000	0.020448
6.086000	0.026257
6.088000	0.031442
6.090000	0.037232
6.092000	0.041209
6.094000	0.043041
6.096000	0.042125
6.098000	0.038460
6.100000	0.032963
6.102000	0.025653
6.104000	0.017407
6.106000	0.008246
6.108000	0.000000
6.110000	-0.007310
6.112000	-0.013411
6.114000	-0.017700
6.116000	-0.020429
6.118000	-0.022261
6.120000	-0.022261
6.122000	-0.022261
6.124000	-0.021969
6.126000	-0.020136
6.128000	-0.017992
6.130000	-0.016784
6.132000	-0.015244
6.134000	-0.014639
6.136000	-0.013411
6.138000	-0.013119
6.140000	-0.013411
6.142000	-0.014035
6.144000	-0.014951
6.146000	-0.015556
6.148000	-0.016784
6.150000	-0.017076
6.152000	-0.017388
6.154000	-0.017700
6.156000	-0.016784
6.158000	-0.015867
6.160000	-0.014951
6.162000	-0.013723
6.164000	-0.011891
6.166000	-0.010975
6.168000	-0.009454
6.170000	-0.008850
6.172000	-0.009142
6.174000	-0.009747
6.176000	-0.010975
6.178000	-0.012203
6.180000	-0.012807
6.182000	-0.014327
6.184000	-0.015244
6.186000	-0.015867
6.188000	-0.016160
6.190000	-0.015867
6.192000	-0.014639
6.194000	-0.013411
6.196000	-0.011891
6.198000	-0.009454
6.200000	-0.006706
6.202000	-0.002729
6.204000	0.000312
6.206000	0.003372
6.208000	0.007641
6.210000	0.011910
6.212000	0.015575
6.214000	0.019532
6.216000	0.023821
6.218000	0.029006
6.220000	0.035107
6.222000	0.042125
6.224000	0.050370
6.226000	0.058908
6.228000	0.067446
6.230000	0.075088
6.232000	0.081189
6.234000	0.085770
6.236000	0.087290
6.238000	0.084542
6.240000	0.077212
6.242000	0.066238
6.244000	0.052203
6.246000	0.036316
6.248000	0.020156
6.250000	0.004581
6.252000	-0.009142
6.254000	-0.020741
6.256000	-0.028674
6.258000	-0.033860
6.260000	-0.036004
6.262000	-0.037212
6.264000	-0.037524
6.266000	-0.037836
6.268000	-0.037836
6.270000	-0.039045
6.272000	-0.040877
6.274000	-0.043333
6.276000	-0.044542
6.278000	-0.045458
6.280000	-0.045770
6.282000	-0.045458
6.284000	-0.043333
6.286000	-0.041189
6.288000	-0.037836
6.290000	-0.035088
6.292000	-0.032339
6.294000	-0.030507
6.296000	-0.028986
6.298000	-0.028070
6.300000	-0.027758
6.302000	-0.027758
6.304000	-0.028070
6.306000	-0.027154
6.308000	-0.026238
6.310000	-0.025010
6.312000	-0.024094
6.314000	-0.023489
6.316000	-0.023177
6.318000	-0.024094
6.320000	-0.025634
6.322000	-0.024717
6.324000	-0.019825
6.326000	-0.007622
6.328000	0.012222
6.330000	0.041813
6.332000	0.081793
6.334000	0.132768
6.336000	0.191365
6.338000	0.253002
6.340000	0.308850
6.342000	0.347914
6.344000	0.362261
6.346000	0.345478
6.348000	0.298772
6.350000	0.226452
6.352000	0.137953
6.354000	0.040604
6.356000	-0.052788
6.358000	-0.131209
6.360000	-0.186764
6.362000	-0.215146
6.364000	-0.216667
6.366000	-0.197134
6.368000	-0.164172
6.370000	-0.126647
6.372000	-0.090936
6.374000	-0.061326
6.376000	-0.040273
6.378000	-0.027154
6.380000	-0.019513
6.382000	-0.016472
6.384000	-0.015556
6.386000	-0.014951
6.388000	-0.014327
6.390000	-0.013411
6.392000	-0.013119
6.394000	-0.011287
6.396000	-0.008850
6.398000	-0.007018
6.400000	-0.006394
6.402000	-0.006394
6.404000	-0.007622
6.406000	-0.008850
6.408000	-0.010058
6.410000	-0.010975
6.412000	-0.011287
6.414000	-0.010370
6.416000	-0.008850
6.418000	-0.006101
6.420000	-0.002729
6.422000	0.000312
6.424000	0.002144
6.426000	0.003372
6.428000	0.003372
6.430000	0.002749
6.432000	0.001228
6.434000	-0.000292
6.436000	-0.001813
6.438000	-0.003353
6.440000	-0.003957
6.442000	-0.003645
6.444000	-0.003041
6.446000	-0.001520
6.448000	0.000000
6.450000	0.002144
6.452000	0.004581
6.454000	0.007037
6.456000	0.010078
6.458000	0.013431
6.460000	0.017407
6.462000	0.020156
6.464000	0.022593
6.466000	0.024425
6.468000	0.025341
6.470000	0.025653
6.472000	0.025945
6.474000	0.025341
6.476000	0.022904
6.478000	0.019532
6.480000	0.014659
6.482000	0.009766
6.484000	0.004893
6.486000	0.000000
6.488000	-0.004873
6.490000	-0.008226
6.492000	-0.010058
6.494000	-0.009747
6.496000	-0.007018
6.498000	-0.002729
6.500000	0.003372
6.502000	0.011306
6.504000	0.019844
6.506000	0.029298
6.508000	0.037856
6.510000	0.044561
6.512000	0.050663
6.514000	0.054639
6.516000	0.055848
6.518000	0.054327
6.520000	0.049454
6.522000	0.042437
6.524000	0.033275
6.526000	0.023509
6.528000	0.013743
6.530000	0.004288
6.532000	-0.003957
6.534000	-0.009747
6.536000	-0.014035
6.538000	-0.015867
6.540000	-0.015244
6.542000	-0.013411
6.544000	-0.010975
6.546000	-0.008850
6.548000	-0.007018
6.550000	-0.005478
6.552000	-0.004873
6.554000	-0.004561
6.556000	-0.005185
6.558000	-0.006706
6.560000	-0.008538
6.562000	-0.010058
6.564000	-0.011287
6.566000	-0.012203
6.568000	-0.012807
6.570000	-0.012807
6.572000	-0.014035
6.574000	-0.014035
6.576000	-0.014639
6.578000	-0.015556
6.580000	-0.015867
6.582000	-0.017076
6.584000	-0.018304
6.586000	-0.019220
6.588000	-0.020136
6.590000	-0.019825
6.592000	-0.018908
6.594000	-0.017700
6.596000	-0.014951
6.598000	-0.011287
6.600000	-0.006706
6.602000	-0.001520
6.604000	0.001832
6.606000	0.005205
6.608000	0.008246
6.610000	0.009162
6.612000	0.008869
6.614000	0.007641
6.616000	0.004581
6.618000	0.001228
6.620000	-0.002729
6.622000	-0.006101
6.624000	-0.007310
6.626000	-0.008850
6.628000	-0.008226
6.630000	-0.005789
6.632000	-0.002125
6.634000	0.006121
6.636000	0.015575
6.638000	0.027778
6.640000	0.041520
6.642000	0.055848
6.644000	0.070195
6.646000	0.082710
6.648000	0.093080
6.650000	0.099805
6.652000	0.102242
6.654000	0.098889
6.656000	0.090351
6.658000	0.075692
6.660000	0.057680
6.662000	0.036940
6.664000	0.014971
6.666000	-0.004873
6.668000	-0.022885
6.670000	-0.037836
6.672000	-0.048207
6.674000	-0.053704
6.676000	-0.054620
6.678000	-0.051559
6.680000	-0.046686
6.682000	-0.039961
6.684000	-0.032943
6.686000	-0.026238
6.688000	-0.020429
6.690000	-0.015556
6.692000	-0.012203
6.694000	-0.010663
6.696000	-0.009747
6.698000	-0.010663
6.700000	-0.013411
6.702000	-0.017992
6.704000	-0.023177
6.706000	-0.030195
6.708000	-0.036316
6.710000	-0.043021
6.712000	-0.049123
6.714000	-0.053704
6.716000	-0.055828
6.718000	-0.055536
6.720000	-0.053392
6.722000	-0.049123
6.724000	-0.043333
6.726000	-0.036316
6.728000	-0.028986
6.730000	-0.021657
6.732000	-0.015867
6.734000	-0.011287
6.736000	-0.007622
6.738000	-0.006101
6.740000	-0.006101
6.742000	-0.005789
6.744000	-0.002729
6.746000	0.004893
6.748000	0.019532
6.750000	0.041813
6.752000	0.072943
6.754000	0.113528
6.756000	0.162982
6.758000	0.217290
6.760000	0.269181
6.762000	0.309766
6.764000	0.328986
6.766000	0.321053
6.768000	0.285653
6.770000	0.225848
6.772000	0.147407
6.774000	0.058908
6.776000	-0.028674
6.778000	-0.104971
6.780000	-0.160819
6.782000	-0.191033
6.784000	-0.196218
6.786000	-0.179435
6.788000	-0.148908
6.790000	-0.111988
6.792000	-0.076277
6.794000	-0.047290
6.796000	-0.027466
6.798000	-0.016784
6.800000	-0.013119
6.802000	-0.014327
6.804000	-0.017992
6.806000	-0.022573
6.808000	-0.025926
6.810000	-0.027154
6.812000	-0.026550
6.814000	-0.024094
6.816000	-0.019513
6.818000	-0.013723
6.820000	-0.008850
6.822000	-0.003957
6.824000	-0.000897
6.826000	0.000916
6.828000	0.001832
6.830000	0.001540
6.832000	0.000624
6.834000	-0.001520
6.836000	-0.003353
6.838000	-0.005478
6.840000	-0.007310
6.842000	-0.007622
6.844000	-0.007622
6.846000	-0.007018
6.848000	-0.005185
6.850000	-0.003353
6.852000	-0.000292
6.854000	0.002144
6.856000	0.004893
6.858000	0.008869
6.860000	0.012515
6.862000	0.016179
6.864000	0.020156
6.866000	0.023821
6.868000	0.027466
6.870000	0.030838
6.872000	0.033879
6.874000	0.035419
6.876000	0.035419
6.878000	0.033275
6.880000	0.030526
6.882000	0.027173
6.884000	0.023197
6.886000	0.018928
6.888000	0.014347
6.890000	0.010994
6.892000	0.008869
6.894000	0.008557
6.896000	0.008869
6.898000	0.009766
6.900000	0.010682
6.902000	0.011598
6.904000	0.012222
6.906000	0.012222
6.908000	0.011598
6.910000	0.010994
6.912000	0.009474
6.914000	0.007953
6.916000	0.007037
6.918000	0.007329
6.920000	0.009474
6.922000	0.013743
6.924000	0.020448
6.926000	0.027778
6.928000	0.035419
6.930000	0.041813
6.932000	0.046706
6.934000	0.050058
6.936000	0.050370
6.938000	0.047622
6.940000	0.041813
6.942000	0.034795
6.944000	0.025341
6.946000	0.016803
6.948000	0.008869
6.950000	0.002144
6.952000	-0.001520
6.954000	-0.005185
6.956000	-0.007622
6.958000	-0.009454
6.960000	-0.010058
6.962000	-0.011287
6.964000	-0.013119
6.966000	-0.013119
6.968000	-0.012495
6.970000	-0.012203
6.972000	-0.010663
6.974000	-0.008850
6.976000	-0.005789
6.978000	-0.003645
6.980000	-0.001813
6.982000	-0.000604
6.984000	-0.001520
6.986000	-0.003957
6.988000	-0.007622
6.990000	-0.011287
6.992000	-0.015556
6.994000	-0.019220
6.996000	-0.022573
6.998000	-0.025322
7.000000	-0.025926
7.002000	-0.026238
7.004000	-0.025634
7.006000	-0.024405
7.008000	-0.022261
7.010000	-0.019825
7.012000	-0.016472
7.014000	-0.011891
7.016000	-0.007934
7.018000	-0.005185
7.020000	-0.003957
7.022000	-0.002437
7.024000	-0.002125
7.026000	-0.003041
7.028000	-0.005185
7.030000	-0.007622
7.032000	-0.010975
7.034000	-0.013119
7.036000	-0.015556
7.038000	-0.016160
7.040000	-0.015244
7.042000	-0.013723
7.044000	-0.010370
7.046000	-0.006101
7.048000	-0.000897
7.050000	0.004288
7.052000	0.007641
7.054000	0.010390
7.056000	0.012222
7.058000	0.012222
7.060000	0.010390
7.062000	0.006725
7.064000	0.003372
7.066000	0.000624
7.068000	-0.001520
7.070000	-0.002729
7.072000	-0.003645
7.074000	-0.003645
7.076000	-0.003041
7.078000	-0.002125
7.080000	-0.001813
7.082000	-0.002125
7.084000	-0.002729
7.086000	-0.002729
7.088000	-0.002729
7.090000	-0.001813
7.092000	-0.000897
7.094000	0.000312
7.096000	0.001228
7.098000	0.002749
7.100000	0.003665
7.102000	0.004581
7.104000	0.004288
7.106000	0.002749
7.108000	0.001540
7.110000	0.000312
7.112000	0.000312
7.114000	0.001540
7.116000	0.002456
7.118000	0.003977
7.120000	0.004581
7.122000	0.004893
7.124000	0.006121
7.126000	0.007329
7.128000	0.008246
7.130000	0.009766
7.132000	0.011598
7.134000	0.015263
7.136000	0.021988
7.138000	0.031131
7.140000	0.041813
7.142000	0.054639
7.144000	0.067446
7.146000	0.080273
7.148000	0.091559
7.150000	0.101014
7.152000	0.108343
7.154000	0.110175
7.156000	0.107134
7.158000	0.097368
7.160000	0.083314
7.162000	0.066238
7.164000	0.047310
7.166000	0.027173
7.168000	0.007641
7.170000	-0.009747
7.172000	-0.023489
7.174000	-0.033860
7.176000	-0.039961
7.178000	-0.043938
7.180000	-0.045770
7.182000	-0.045770
7.184000	-0.044854
7.186000	-0.043938
7.188000	-0.041793
7.190000	-0.039669
7.192000	-0.036316
7.194000	-0.032339
7.196000	-0.027758
7.198000	-0.024094
7.200000	-0.020136
7.202000	-0.017388
7.204000	-0.015867
7.206000	-0.015867
7.208000	-0.016160
7.210000	-0.017700
7.212000	-0.020136
7.214000	-0.023489
7.216000	-0.026550
7.218000	-0.029903
7.220000	-0.030819
7.222000	-0.031423
7.224000	-0.031423
7.226000	-0.032027
7.228000	-0.031735
7.230000	-0.031423
7.232000	-0.031111
7.234000	-0.030195
7.236000	-0.030507
7.238000	-0.031735
7.240000	-0.032027
7.242000	-0.031735
7.244000	-0.030195
7.246000	-0.026550
7.248000	-0.018908
7.250000	-0.005478
7.252000	0.014971
7.254000	0.042729
7.256000	0.078441
7.258000	0.122690
7.260000	0.174561
7.262000	0.230117
7.264000	0.282300
7.266000	0.321053
7.268000	0.338752
7.270000	0.327778
7.272000	0.288090
7.274000	0.224016
7.276000	0.141306
7.278000	0.049142
7.280000	-0.043333
7.282000	-0.122982
7.284000	-0.180955
7.286000	-0.212690
7.288000	-0.217583
7.290000	-0.199883
7.292000	-0.166920
7.294000	-0.126940
7.296000	-0.086959
7.298000	-0.053099
7.300000	-0.028070
7.302000	-0.011579
7.304000	-0.003353
7.306000	-0.000292
7.308000	-0.000292
7.310000	-0.001520
7.312000	-0.004561
7.314000	-0.007622
7.316000	-0.010663
7.318000	-0.013119
7.320000	-0.014951
7.322000	-0.015867
7.324000	-0.015867
7.326000	-0.016160
7.328000	-0.015867
7.330000	-0.015556
7.332000	-0.014639
7.334000	-0.013723
7.336000	-0.011891
7.338000	-0.010370
7.340000	-0.008850
7.342000	-0.007934
7.344000	-0.006394
7.346000	-0.005185
7.348000	-0.004561
7.350000	-0.003645
7.352000	-0.003041
7.354000	-0.002125
7.356000	-0.001209
7.358000	0.000000
7.360000	0.000916
7.362000	0.002144
7.364000	0.004581
7.366000	0.006725
7.368000	0.008557
7.370000	0.008869
7.372000	0.007953
7.374000	0.005497
7.376000	0.003060
7.378000	-0.000292
7.380000	-0.003353
7.382000	-0.007018
7.384000	-0.008850
7.386000	-0.009142
7.388000	-0.008850
7.390000	-0.007934
7.392000	-0.004873
7.394000	-0.002125
7.396000	0.000916
7.398000	0.003060
7.400000	0.005205
7.402000	0.006121
7.404000	0.006413
7.406000	0.005497
7.408000	0.003060
7.410000	0.000000
7.412000	-0.004561
7.414000	-0.010058
7.416000	-0.015867
7.418000	-0.020136
7.420000	-0.024094
7.422000	-0.027154
7.424000	-0.027758
7.426000	-0.025926
7.428000	-0.022573
7.430000	-0.017992
7.432000	-0.012495
7.434000	-0.006101
7.436000	0.000916
7.438000	0.006725
7.440000	0.011598
7.442000	0.014347
7.444000	0.015263
7.446000	0.014659
7.448000	0.013431
7.450000	0.011306
7.452000	0.007641
7.454000	0.002749
7.456000	-0.002437
7.458000	-0.007622
7.460000	-0.012495
7.462000	-0.017388
7.464000	-0.021969
7.466000	-0.025926
7.468000	-0.029591
7.470000	-0.032943
7.472000	-0.035088
7.474000	-0.036004
7.476000	-0.036316
7.478000	-0.036004
7.480000	-0.034483
7.482000	-0.033255
7.484000	-0.031111
7.486000	-0.028674
7.488000	-0.026550
7.490000	-0.025322
7.492000	-0.024717
7.494000	-0.024094
7.496000	-0.023177
7.498000	-0.023177
7.500000	-0.023177
7.502000	-0.023801
7.504000	-0.024717
7.506000	-0.025322
7.508000	-0.025926
7.510000	-0.028363
7.512000	-0.030195
7.514000	-0.032027
7.516000	-0.034776
7.518000	-0.036920
7.520000	-0.039045
7.522000	-0.039669
7.524000	-0.039961
7.526000	-0.038752
7.528000	-0.037836
7.530000	-0.036316
7.532000	-0.035088
7.534000	-0.034483
7.536000	-0.034172
7.538000	-0.033860
7.540000	-0.033567
7.542000	-0.032943
7.544000	-0.032339
7.546000	-0.030819
7.548000	-0.028986
7.550000	-0.026550
7.552000	-0.024094
7.554000	-0.021657
7.556000	-0.019825
7.558000	-0.018304
7.560000	-0.018596
7.562000	-0.018596
7.564000	-0.019220
7.566000	-0.019513
7.568000	-0.020429
7.570000	-0.022261
7.572000	-0.024094
7.574000	-0.026842
7.576000	-0.029591
7.578000	-0.032651
7.580000	-0.034483
7.582000	-0.036316
7.584000	-0.036608
7.586000	-0.035400
7.588000	-0.032943
7.590000	-0.029903
7.592000	-0.025926
7.594000	-0.021053
7.596000	-0.016784
7.598000	-0.011579
7.600000	-0.005185
7.602000	0.002456
7.604000	0.011910
7.606000	0.022904
7.608000	0.035107
7.610000	0.046998
7.612000	0.058596
7.614000	0.068674
7.616000	0.076296
7.618000	0.079669
7.620000	0.077212
7.622000	0.069591
7.624000	0.057388
7.626000	0.042437
7.628000	0.025029
7.630000	0.006725
7.632000	-0.012203
7.634000	-0.028986
7.636000	-0.043333
7.638000	-0.054620
7.640000	-0.062242
7.642000	-0.067427
7.644000	-0.069571
7.646000	-0.070487
7.648000	-0.070175
7.650000	-0.068967
7.652000	-0.067739
7.654000	-0.065595
7.656000	-0.062554
7.658000	-0.059805
7.660000	-0.057973
7.662000	-0.055828
7.664000	-0.054932
7.666000	-0.054620
7.668000	-0.054620
7.670000	-0.056140
7.672000	-0.057057
7.674000	-0.058285
7.676000	-0.058889
7.678000	-0.059493
7.680000	-0.058577
7.682000	-0.056452
7.684000	-0.052788
7.686000	-0.049727
7.688000	-0.046374
7.690000	-0.042710
7.692000	-0.039045
7.694000	-0.036608
7.696000	-0.035400
7.698000	-0.035088
7.700000	-0.034483
7.702000	-0.034483
7.704000	-0.034483
7.706000	-0.035088
7.708000	-0.035400
7.710000	-0.032943
7.712000	-0.025634
7.714000	-0.010663
7.716000	0.011306
7.718000	0.041209
7.720000	0.080585
7.722000	0.130019
7.724000	0.186472
7.726000	0.245672
7.728000	0.297563
7.730000	0.332047
7.732000	0.339980
7.734000	0.318012
7.736000	0.267349
7.738000	0.193801
7.740000	0.102846
7.742000	0.007037
7.744000	-0.082378
7.746000	-0.154717
7.748000	-0.202632
7.750000	-0.221248
7.752000	-0.213918
7.754000	-0.186452
7.756000	-0.148304
7.758000	-0.106803
7.760000	-0.071092
7.762000	-0.043938
7.764000	-0.026238
7.766000	-0.017700
7.768000	-0.014951
7.770000	-0.017388
7.772000	-0.021345
7.774000	-0.025634
7.776000	-0.028674
7.778000	-0.030819
7.780000	-0.031735
7.782000	-0.030819
7.784000	-0.029279
7.786000	-0.028070
7.788000	-0.025926
7.790000	-0.024405
7.792000	-0.021969
7.794000	-0.020136
7.796000	-0.017700
7.798000	-0.014951
7.800000	-0.012807
7.802000	-0.009747
7.804000	-0.007310
7.806000	-0.004873
7.808000	-0.002125
7.810000	0.000000
7.812000	0.001832
7.814000	0.002456
7.816000	0.003060
7.818000	0.003060
7.820000	0.003665
7.822000	0.003977
7.824000	0.003665
7.826000	0.003372
7.828000	0.004288
7.830000	0.005809
7.832000	0.007953
7.834000	0.008869
7.836000	0.009474
7.838000	0.010078
7.840000	0.010682
7.842000	0.011306
7.844000	0.010994
7.846000	0.011306
7.848000	0.011306
7.850000	0.010682
7.852000	0.011306
7.854000	0.012827
7.856000	0.014971
7.858000	0.017096
7.860000	0.019844
7.862000	0.021365
7.864000	0.022281
7.866000	0.021676
7.868000	0.019240
7.870000	0.016179
7.872000	0.011598
7.874000	0.007329
7.876000	0.002456
7.878000	-0.000897
7.880000	-0.003957
7.882000	-0.005185
7.884000	-0.003645
7.886000	-0.000604
7.888000	0.004288
7.890000	0.011910
7.892000	0.019844
7.894000	0.028090
7.896000	0.036628
7.898000	0.044269
7.900000	0.051287
7.902000	0.055244
7.904000	0.055848
7.906000	0.054327
7.908000	0.050058
7.910000	0.041813
7.912000	0.033275
7.914000	0.022904
7.916000	0.013431
7.918000	0.004288
7.920000	-0.003645
7.922000	-0.009454
7.924000	-0.014035
7.926000	-0.016784
7.928000	-0.018304
7.930000	-0.019220
7.932000	-0.019825
7.934000	-0.020136
7.936000	-0.020741
7.938000	-0.021345
7.940000	-0.022261
7.942000	-0.023177
7.944000	-0.023177
7.946000	-0.023489
7.948000	-0.023177
7.950000	-0.021657
7.952000	-0.019825
7.954000	-0.018304
7.956000	-0.015556
7.958000	-0.013411
7.960000	-0.011579
7.962000	-0.009747
7.964000	-0.008850
7.966000	-0.007934
7.968000	-0.008226
7.970000	-0.010058
7.972000	-0.011891
7.974000	-0.014035
7.976000	-0.016160
7.978000	-0.017992
7.980000	-0.019220
7.982000	-0.019825
7.984000	-0.019825
7.986000	-0.019220
7.988000	-0.017076
7.990000	-0.014327
7.992000	-0.010663
7.994000	-0.006101
7.996000	-0.001209
7.998000	0.002456
8.000000	0.006121
8.002000	0.007953
8.004000	0.008246
8.006000	0.006725
8.008000	0.003665
8.010000	0.000312
8.012000	-0.003353
8.014000	-0.007018
8.016000	-0.010058
8.018000	-0.010975
8.020000	-0.010058
8.022000	-0.007622
8.024000	-0.003645
8.026000	0.002456
8.028000	0.011910
8.030000	0.024113
8.032000	0.037544
8.034000	0.053119
8.036000	0.069903
8.038000	0.086374
8.040000	0.101637
8.042000	0.113236
8.044000	0.120253
8.046000	0.120858
8.048000	0.115068
8.050000	0.103470
8.052000	0.086062
8.054000	0.064698
8.056000	0.040897
8.058000	0.016803
8.060000	-0.005789
8.062000	-0.024717
8.064000	-0.039961
8.066000	-0.049123
8.068000	-0.053392
8.070000	-0.053099
8.072000	-0.049727
8.074000	-0.043938
8.076000	-0.037524
8.078000	-0.030507
8.080000	-0.024717
8.082000	-0.020741
8.084000	-0.018908
8.086000	-0.018304
8.088000	-0.018304
8.090000	-0.019220
8.092000	-0.021657
8.094000	-0.023801
8.096000	-0.027154
8.098000	-0.029903
8.100000	-0.033255
8.102000	-0.035692
8.104000	-0.037212
8.106000	-0.036920
8.108000	-0.036316
8.110000	-0.034776
8.112000	-0.032651
8.114000	-0.030195
8.116000	-0.027758
8.118000	-0.026238
8.120000	-0.024405
8.122000	-0.022261
8.124000	-0.020741
8.126000	-0.019825
8.128000	-0.017992
8.130000	-0.015244
8.132000	-0.010975
8.134000	-0.003957
8.136000	0.009474
8.138000	0.029610
8.140000	0.056764
8.142000	0.092788
8.144000	0.137953
8.146000	0.191365
8.148000	0.250565
8.150000	0.307329
8.152000	0.352495
8.154000	0.373860
8.156000	0.366218
8.158000	0.328986
8.160000	0.265809
8.162000	0.180370
8.164000	0.083938
8.166000	-0.014035
8.168000	-0.099474
8.170000	-0.163879
8.172000	-0.201092
8.174000	-0.209961
8.176000	-0.193782
8.178000	-0.162047
8.180000	-0.122671
8.182000	-0.083606
8.184000	-0.049727
8.186000	-0.025010
8.188000	-0.009454
8.190000	-0.002437
8.192000	-0.002125
8.194000	-0.005185
8.196000	-0.010370
8.198000	-0.016160
8.200000	-0.020741
8.202000	-0.024094
8.204000	-0.025322
8.206000	-0.025322
8.208000	-0.023177
8.210000	-0.020136
8.212000	-0.016160
8.214000	-0.011891
8.216000	-0.008538
8.218000	-0.006101
8.220000	-0.004873
8.222000	-0.003957
8.224000	-0.003957
8.226000	-0.003645
8.228000	-0.003353
8.230000	-0.003645
8.232000	-0.003353
8.234000	-0.002729
8.236000	-0.001209
8.238000	0.000624
8.240000	0.002749
8.242000	0.004288
8.244000	0.005497
8.246000	0.006413
8.248000	0.006725
8.250000	0.006725
8.252000	0.006725
8.254000	0.005497
8.256000	0.004893
8.258000	0.004893
8.260000	0.005809
8.262000	0.007037
8.264000	0.009162
8.266000	0.011306
8.268000	0.013743
8.270000	0.016179
8.272000	0.018616
8.274000	0.019532
8.276000	0.020760
8.278000	0.020156
8.280000	0.019532
8.282000	0.018324
8.284000	0.017096
8.286000	0.014971
8.288000	0.012827
8.290000	0.010994
8.292000	0.008557
8.294000	0.007953
8.296000	0.007037
8.298000	0.007037
8.300000	0.008246
8.302000	0.010078
8.304000	0.013138
8.306000	0.016803
8.308000	0.021365
8.310000	0.026569
8.312000	0.032047
8.314000	0.039064
8.316000	0.045789
8.318000	0.051891
8.320000	0.057076
8.322000	0.059825
8.324000	0.061053
8.326000	0.060136
8.328000	0.055244
8.330000	0.048538
8.332000	0.038772
8.334000	0.027173
8.336000	0.014971
8.338000	0.003060
8.340000	-0.006706
8.342000	-0.014639
8.344000	-0.021053
8.346000	-0.024717
8.348000	-0.026550
8.350000	-0.027758
8.352000	-0.027466
8.354000	-0.026550
8.356000	-0.025322
8.358000	-0.024717
8.360000	-0.024717
8.362000	-0.025322
8.364000	-0.024717
8.366000	-0.024717
8.368000	-0.023489
8.370000	-0.021345
8.372000	-0.019220
8.374000	-0.016160
8.376000	-0.014327
8.378000	-0.012203
8.380000	-0.009747
8.382000	-0.007018
8.384000	-0.006394
8.386000	-0.007310
8.388000	-0.008850
8.390000	-0.011287
8.392000	-0.014327
8.394000	-0.017700
8.396000	-0.020741
8.398000	-0.023489
8.400000	-0.025634
8.402000	-0.026238
8.404000	-0.027154
8.406000	-0.025634
8.408000	-0.025010
8.410000	-0.023177
8.412000	-0.020429
8.414000	-0.017700
8.416000	-0.014639
8.418000	-0.011579
8.420000	-0.008226
8.422000	-0.004561
8.424000	-0.000897
8.426000	0.002456
8.428000	0.004581
8.430000	0.005809
8.432000	0.005497
8.434000	0.005809
8.436000	0.004893
8.438000	0.003060
8.440000	0.000624
8.442000	-0.000292
8.444000	0.000624
8.446000	0.004893
8.448000	0.012222
8.450000	0.023509
8.452000	0.036940
8.454000	0.052203
8.456000	0.067446
8.458000	0.082105
8.460000	0.093996
8.462000	0.101637
8.464000	0.103470
8.466000	0.098577
8.468000	0.087895
8.470000	0.072943
8.472000	0.054932
8.474000	0.034795
8.476000	0.015263
8.478000	-0.002729
8.480000	-0.016784
8.482000	-0.026842
8.484000	-0.033255
8.486000	-0.037212
8.488000	-0.038129
8.490000	-0.037212
8.492000	-0.036004
8.494000	-0.035400
8.496000	-0.035400
8.498000	-0.036608
8.500000	-0.038752
8.502000	-0.039045
8.504000	-0.038752
8.506000	-0.037836
8.508000	-0.036920
8.510000	-0.034776
8.512000	-0.033255
8.514000	-0.032027
8.516000	-0.031111
8.518000	-0.031111
8.520000	-0.032339
8.522000	-0.034483
8.524000	-0.036920
8.526000	-0.039045
8.528000	-0.040877
8.530000	-0.042105
8.532000	-0.042710
8.534000	-0.042105
8.536000	-0.040585
8.538000	-0.038441
8.540000	-0.035088
8.542000	-0.032339
8.544000	-0.029279
8.546000	-0.027154
8.548000	-0.023801
8.550000	-0.019513
8.552000	-0.010370
8.554000	0.005809
8.556000	0.030526
8.558000	0.064405
8.560000	0.109864
8.562000	0.164795
8.564000	0.228889
8.566000	0.295731
8.568000	0.354932
8.570000	0.393996
8.572000	0.403450
8.574000	0.379961
8.576000	0.325029
8.578000	0.243548
8.580000	0.144366
8.582000	0.037544
8.584000	-0.063158
8.586000	-0.145867
8.588000	-0.201715
8.590000	-0.227349
8.592000	-0.223372
8.594000	-0.197446
8.596000	-0.156842
8.598000	-0.112300
8.600000	-0.071404
8.602000	-0.038129
8.604000	-0.015244
8.606000	-0.002729
8.608000	0.002144
8.610000	0.001228
8.612000	-0.004269
8.614000	-0.009747
8.616000	-0.015556
8.618000	-0.018908
8.620000	-0.021345
8.622000	-0.021345
8.624000	-0.019825
8.626000	-0.017076
8.628000	-0.014639
8.630000	-0.013411
8.632000	-0.012203
8.634000	-0.012495
8.636000	-0.011891
8.638000	-0.011891
8.640000	-0.011579
8.642000	-0.010663
8.644000	-0.008850
8.646000	-0.007934
8.648000	-0.007018
8.650000	-0.005185
8.652000	-0.002437
8.654000	-0.000292
8.656000	0.001228
8.658000	0.002144
8.660000	0.003665
8.662000	0.005205
8.664000	0.007037
8.666000	0.008869
8.668000	0.010390
8.670000	0.011306
8.672000	0.012515
8.674000	0.012222
8.676000	0.012222
8.678000	0.012515
8.680000	0.012515
8.682000	0.013138
8.684000	0.013138
8.686000	0.013743
8.688000	0.014659
8.690000	0.015263
8.692000	0.015263
8.694000	0.015575
8.696000	0.015887
8.698000	0.016491
8.700000	0.016491
8.702000	0.016803
8.704000	0.017096
8.706000	0.016803
8.708000	0.016803
8.710000	0.016179
8.712000	0.015575
8.714000	0.014971
8.716000	0.014055
8.718000	0.012515
8.720000	0.010994
8.722000	0.009766
8.724000	0.009162
8.726000	0.009766
8.728000	0.012515
8.730000	0.016491
8.732000	0.022281
8.734000	0.028694
8.736000	0.035712
8.738000	0.042437
8.740000	0.048226
8.742000	0.052807
8.744000	0.054035
8.746000	0.052203
8.748000	0.047310
8.750000	0.040897
8.752000	0.032359
8.754000	0.022904
8.756000	0.013743
8.758000	0.004893
8.760000	-0.002125
8.762000	-0.008226
8.764000	-0.013411
8.766000	-0.016160
8.768000	-0.017992
8.770000	-0.019220
8.772000	-0.020136
8.774000	-0.020741
8.776000	-0.020741
8.778000	-0.020429
8.780000	-0.019825
8.782000	-0.020136
8.784000	-0.019513
8.786000	-0.018596
8.788000	-0.017700
8.790000	-0.016160
8.792000	-0.014951
8.794000	-0.014035
8.796000	-0.013119
8.798000	-0.011891
8.800000	-0.011579
8.802000	-0.011287
8.804000	-0.011579
8.806000	-0.011891
8.808000	-0.013411
8.810000	-0.015244
8.812000	-0.016784
8.814000	-0.019513
8.816000	-0.021657
8.818000	-0.023489
8.820000	-0.025322
8.822000	-0.025926
8.824000	-0.025634
8.826000	-0.024405
8.828000	-0.022261
8.830000	-0.018596
8.832000	-0.014639
8.834000	-0.010663
8.836000	-0.006706
8.838000	-0.003353
8.840000	-0.001209
8.842000	0.000000
8.844000	0.000000
8.846000	-0.001209
8.848000	-0.003041
8.850000	-0.005185
8.852000	-0.007310
8.854000	-0.008226
8.856000	-0.008226
8.858000	-0.005185
8.860000	0.000312
8.862000	0.008869
8.864000	0.020156
8.866000	0.033879
8.868000	0.048538
8.870000	0.062885
8.872000	0.075088
8.874000	0.084854
8.876000	0.090955
8.878000	0.091559
8.880000	0.087290
8.882000	0.078129
8.884000	0.064094
8.886000	0.046394
8.888000	0.028090
8.890000	0.008869
8.892000	-0.008226
8.894000	-0.022573
8.896000	-0.033255
8.898000	-0.040273
8.900000	-0.043333
8.902000	-0.043938
8.904000	-0.042417
8.906000	-0.040877
8.908000	-0.039045
8.910000	-0.037524
8.912000	-0.038129
8.914000	-0.039961
8.916000	-0.042417
8.918000	-0.045166
8.920000	-0.047290
8.922000	-0.048519
8.924000	-0.049123
8.926000	-0.048519
8.928000	-0.047290
8.930000	-0.045166
8.932000	-0.042105
8.934000	-0.039045
8.936000	-0.035692
8.938000	-0.032027
8.940000	-0.028986
8.942000	-0.025926
8.944000	-0.024405
8.946000	-0.023177
8.948000	-0.022885
8.950000	-0.022885
8.952000	-0.023489
8.954000	-0.024717
8.956000	-0.026550
8.958000	-0.027758
8.960000	-0.028674
8.962000	-0.029279
8.964000	-0.030195
8.966000	-0.029279
8.968000	-0.027758
8.970000	-0.025010
8.972000	-0.019825
8.974000	-0.009142
8.976000	0.007641
8.978000	0.032047
8.980000	0.063782
8.982000	0.103470
8.984000	0.151384
8.986000	0.203860
8.988000	0.256667
8.990000	0.300312
8.992000	0.326238
8.994000	0.326550
8.996000	0.299688
8.998000	0.246589
9.000000	0.173041
9.002000	0.086062
9.004000	-0.002729
9.006000	-0.084522
9.008000	-0.149825
9.010000	-0.191949
9.012000	-0.207817
9.014000	-0.199571
9.016000	-0.174250
9.018000	-0.138850
9.020000	-0.100994
9.022000	-0.066511
9.024000	-0.039357
9.026000	-0.020429
9.028000	-0.009747
9.030000	-0.005185
9.032000	-0.004561
9.034000	-0.006394
9.036000	-0.009454
9.038000	-0.012495
9.040000	-0.015556
9.042000	-0.017992
9.044000	-0.018596
9.046000	-0.018596
9.048000	-0.017388
9.050000	-0.016160
9.052000	-0.014951
9.054000	-0.013723
9.056000	-0.012495
9.058000	-0.011287
9.060000	-0.010975
9.062000	-0.011579
9.064000	-0.011579
9.066000	-0.010663
9.068000	-0.009454
9.070000	-0.008226
9.072000	-0.006394
9.074000	-0.003645
9.076000	-0.000604
9.078000	0.003372
9.080000	0.005497
9.082000	0.006121
9.084000	0.007037
9.086000	0.007037
9.088000	0.006725
9.090000	0.005205
9.092000	0.002749
9.094000	0.000624
9.096000	-0.000604
9.098000	-0.001520
9.100000	-0.002729
9.102000	-0.004269
9.104000	-0.004561
9.106000	-0.004269
9.108000	-0.004269
9.110000	-0.003041
9.112000	-0.002125
9.114000	-0.000604
9.116000	0.001832
9.118000	0.004288
9.120000	0.006413
9.122000	0.009162
9.124000	0.011306
9.126000	0.013138
9.128000	0.014347
9.130000	0.014659
9.132000	0.014347
9.134000	0.012515
9.136000	0.010390
9.138000	0.007641
9.140000	0.003665
9.142000	0.000916
9.144000	-0.002125
9.146000	-0.004561
9.148000	-0.005185
9.150000	-0.003957
9.152000	-0.000292
9.154000	0.005497
9.156000	0.013138
9.158000	0.021676
9.160000	0.029922
9.162000	0.036628
9.164000	0.042125
9.166000	0.044561
9.168000	0.043645
9.170000	0.040604
9.172000	0.034191
9.174000	0.025945
9.176000	0.016491
9.178000	0.006725
9.180000	-0.003353
9.182000	-0.011891
9.184000	-0.019513
9.186000	-0.025634
9.188000	-0.029591
9.190000	-0.031735
9.192000	-0.032651
9.194000	-0.031423
9.196000	-0.029591
9.198000	-0.026842
9.200000	-0.024717
9.202000	-0.022573
9.204000	-0.021345
9.206000	-0.021345
9.208000	-0.023177
9.210000	-0.025926
9.212000	-0.028070
9.214000	-0.030819
9.216000	-0.032943
9.218000	-0.034776
9.220000	-0.035692
9.222000	-0.034776
9.224000	-0.033255
9.226000	-0.031423
9.228000	-0.028363
9.230000	-0.025010
9.232000	-0.021969
9.234000	-0.019220
9.236000	-0.017076
9.238000	-0.015556
9.240000	-0.014951
9.242000	-0.015244
9.244000	-0.016160
9.246000	-0.016472
9.248000	-0.017076
9.250000	-0.018304
9.252000	-0.019220
9.254000	-0.019220
9.256000	-0.018908
9.258000	-0.017700
9.260000	-0.016160
9.262000	-0.013411
9.264000	-0.010975
9.266000	-0.008850
9.268000	-0.006706
9.270000	-0.004561
9.272000	-0.003041
9.274000	-0.003041
9.276000	-0.003957
9.278000	-0.004873
9.280000	-0.006394
9.282000	-0.008226
9.284000	-0.010663
9.286000	-0.012495
9.288000	-0.015244
9.290000	-0.017076
9.292000	-0.018304
9.294000	-0.018908
9.296000	-0.019220
9.298000	-0.018596
9.300000	-0.016160
9.302000	-0.013119
9.304000	-0.009454
9.306000	-0.006706
9.308000	-0.003645
9.310000	-0.001520
9.312000	0.000312
9.314000	0.000916
9.316000	0.000624
9.318000	0.000312
9.320000	-0.000897
9.322000	-0.002437
9.324000	-0.003957
9.326000	-0.005478
9.328000	-0.006706
9.330000	-0.007622
9.332000	-0.008538
9.334000	-0.010058
9.336000	-0.011287
9.338000	-0.011891
9.340000	-0.011579
9.342000	-0.012495
9.344000	-0.012807
9.346000	-0.012203
9.348000	-0.010370
9.350000	-0.008226
9.352000	-0.007018
9.354000	-0.004873
9.356000	-0.002437
9.358000	-0.000292
9.360000	0.001832
9.362000	0.003977
9.364000	0.006121
9.366000	0.007037
9.368000	0.006725
9.370000	0.005497
9.372000	0.004581
9.374000	0.003977
9.376000	0.002144
9.378000	0.000312
9.380000	-0.002437
9.382000	-0.004561
9.384000	-0.007018
9.386000	-0.009142
9.388000	-0.010663
9.390000	-0.011579
9.392000	-0.012807
9.394000	-0.012807
9.396000	-0.012495
9.398000	-0.010058
9.400000	-0.006394
9.402000	-0.002125
9.404000	0.002749
9.406000	0.007037
9.408000	0.011910
9.410000	0.017096
9.412000	0.020760
9.414000	0.023821
9.416000	0.028090
9.418000	0.033879
9.420000	0.040897
9.422000	0.049142
9.424000	0.058596
9.426000	0.068674
9.428000	0.079045
9.430000	0.088207
9.432000	0.094912
9.434000	0.100117
9.436000	0.100409
9.438000	0.096745
9.440000	0.088519
9.442000	0.075692
9.444000	0.059513
9.446000	0.040292
9.448000	0.020156
9.450000	0.000624
9.452000	-0.016784
9.454000	-0.032339
9.456000	-0.044250
9.458000	-0.051267
9.460000	-0.054016
9.462000	-0.052788
9.464000	-0.049123
9.466000	-0.045458
9.468000	-0.040877
9.470000	-0.037212
9.472000	-0.034776
9.474000	-0.033567
9.476000	-0.033860
9.478000	-0.035088
9.480000	-0.036608
9.482000	-0.039045
9.484000	-0.040585
9.486000	-0.040273
9.488000	-0.039961
9.490000	-0.038752
9.492000	-0.037212
9.494000	-0.036004
9.496000	-0.034483
9.498000	-0.033567
9.500000	-0.032943
9.502000	-0.032027
9.504000	-0.032027
9.506000	-0.031423
9.508000	-0.031111
9.510000	-0.031423
9.512000	-0.032027
9.514000	-0.031735
9.516000	-0.031423
9.518000	-0.030819
9.520000	-0.030195
9.522000	-0.029591
9.524000	-0.028363
9.526000	-0.026842
9.528000	-0.023801
9.530000	-0.016472
9.532000	-0.003353
9.534000	0.016491
9.536000	0.043957
9.538000	0.079357
9.540000	0.123606
9.542000	0.174873
9.544000	0.229805
9.546000	0.279552
9.548000	0.314035
9.550000	0.324113
9.552000	0.306706
9.554000	0.262456
9.556000	0.195322
9.558000	0.111696
9.560000	0.022281
9.562000	-0.063782
9.564000	-0.135789
9.566000	-0.185224
9.568000	-0.209337
9.570000	-0.208129
9.572000	-0.186452
9.574000	-0.152885
9.576000	-0.115341
9.578000	-0.080858
9.580000	-0.053099
9.582000	-0.033567
9.584000	-0.021969
9.586000	-0.016472
9.588000	-0.014951
9.590000	-0.016784
9.592000	-0.019220
9.594000	-0.021345
9.596000	-0.021969
9.598000	-0.021053
9.600000	-0.018908
9.602000	-0.017076
9.604000	-0.014639
9.606000	-0.012807
9.608000	-0.010663
9.610000	-0.009747
9.612000	-0.009454
9.614000	-0.010663
9.616000	-0.011287
9.618000	-0.011891
9.620000	-0.011891
9.622000	-0.011579
9.624000	-0.010975
9.626000	-0.009454
9.628000	-0.007622
9.630000	-0.005478
9.632000	-0.003041
9.634000	-0.000897
9.636000	0.000312
9.638000	0.002456
9.640000	0.003372
9.642000	0.003665
9.644000	0.004581
9.646000	0.004288
9.648000	0.004288
9.650000	0.002749
9.652000	0.001228
9.654000	0.000000
9.656000	-0.001813
9.658000	-0.003353
9.660000	-0.004873
9.662000	-0.005789
9.664000	-0.005478
9.666000	-0.005478
9.668000	-0.004269
9.670000	-0.003353
9.672000	-0.002729
9.674000	-0.001209
9.676000	-0.000604
9.678000	0.000000
9.680000	0.000000
9.682000	-0.000292
9.684000	-0.000604
9.686000	-0.000604
9.688000	-0.000604
9.690000	0.000000
9.692000	0.000312
9.694000	-0.000897
9.696000	-0.001813
9.698000	-0.003957
9.700000	-0.006706
9.702000	-0.010370
9.704000	-0.014327
9.706000	-0.018596
9.708000	-0.021345
9.710000	-0.023177
9.712000	-0.022261
9.714000	-0.020136
9.716000	-0.015556
9.718000	-0.009454
9.720000	-0.001209
9.722000	0.007037
9.724000	0.015575
9.726000	0.021676
9.728000	0.026257
9.730000	0.029298
9.732000	0.029922
9.734000	0.027778
9.736000	0.023197
9.738000	0.016179
9.740000	0.008246
9.742000	-0.000897
9.744000	-0.009142
9.746000	-0.016472
9.748000	-0.021657
9.750000	-0.025322
9.752000	-0.027758
9.754000	-0.028070
9.756000	-0.027154
9.758000	-0.025322
9.760000	-0.022261
9.762000	-0.019513
9.764000	-0.016784
9.766000	-0.014951
9.768000	-0.013119
9.770000	-0.011287
9.772000	-0.009747
9.774000	-0.008226
9.776000	-0.007018
9.778000	-0.007310
9.780000	-0.007622
9.782000	-0.008226
9.784000	-0.010058
9.786000	-0.011287
9.788000	-0.011579
9.790000	-0.013411
9.792000	-0.014951
9.794000	-0.015556
9.796000	-0.016160
9.798000	-0.016784
9.800000	-0.017076
9.802000	-0.016784
9.804000	-0.016784
9.806000	-0.015867
9.808000	-0.014951
9.810000	-0.014639
9.812000	-0.014327
9.814000	-0.013723
9.816000	-0.013119
9.818000	-0.012203
9.820000	-0.011579
9.822000	-0.011891
9.824000	-0.011579
9.826000	-0.011579
9.828000	-0.011287
9.830000	-0.011287
9.832000	-0.011287
9.834000	-0.010975
9.836000	-0.010663
9.838000	-0.010058
9.840000	-0.009454
9.842000	-0.009142
9.844000	-0.009142
9.846000	-0.009454
9.848000	-0.009454
9.850000	-0.010058
9.852000	-0.010663
9.854000	-0.011579
9.856000	-0.011579
9.858000	-0.011287
9.860000	-0.010975
9.862000	-0.009454
9.864000	-0.008538
9.866000	-0.007310
9.868000	-0.005789
9.870000	-0.003645
9.872000	-0.001520
9.874000	0.001832
9.876000	0.004581
9.878000	0.007037
9.880000	0.008869
9.882000	0.010390
9.884000	0.010682
9.886000	0.010390
9.888000	0.010390
9.890000	0.010682
9.892000	0.011910
9.894000	0.015575
9.896000	0.021676
9.898000	0.030526
9.900000	0.041209
9.902000	0.053723
9.904000	0.066238
9.906000	0.077524
9.908000	0.086979
9.910000	0.093392
9.912000	0.096140
9.914000	0.093996
9.916000	0.086686
9.918000	0.075088
9.920000	0.060429
9.922000	0.043353
9.924000	0.025945
9.926000	0.010078
9.928000	-0.004561
9.930000	-0.015244
9.932000	-0.024094
9.934000	-0.029903
9.936000	-0.033567
9.938000	-0.035692
9.940000	-0.036608
9.942000	-0.037524
9.944000	-0.037836
9.946000	-0.037836
9.948000	-0.037212
9.950000	-0.036316
9.952000	-0.034776
9.954000	-0.032339
9.956000	-0.030819
9.958000	-0.028674
9.960000	-0.027466
9.962000	-0.025322
9.964000	-0.023489
9.966000	-0.021657
9.968000	-0.019513
9.970000	-0.019220
9.972000	-0.017388
9.974000	-0.016784
9.976000	-0.017700
9.978000	-0.019513
9.980000	-0.022261
9.982000	-0.025322
9.984000	-0.029591
9.986000	-0.032651
9.988000	-0.035400
9.990000	-0.036920
9.992000	-0.035692
9.994000	-0.034483
9.996000	-0.031111
9.998000	-0.027758
10.000000	-0.024405
10.002000	-0.020136
10.004000	-0.012807
10.006000	-0.002125
10.008000	0.014347
10.010000	0.036940
10.012000	0.067758
10.014000	0.107134
10.016000	0.155341
10.018000	0.210585
10.020000	0.268869
10.022000	0.318304
10.024000	0.349123
10.026000	0.353411
10.028000	0.327154
10.030000	0.274055
10.032000	0.197758
10.034000	0.106218
10.036000	0.008869
10.038000	-0.081170
10.040000	-0.152885
10.042000	-0.199279
10.044000	-0.216979
10.046000	-0.208733
10.048000	-0.180955
10.050000	-0.141891
10.052000	-0.099181
10.054000	-0.061326
10.056000	-0.032027
10.058000	-0.012203
10.060000	-0.001520
10.062000	0.002749
10.064000	0.001832
10.066000	-0.000897
10.068000	-0.005185
10.070000	-0.009142
10.072000	-0.012495
10.074000	-0.014951
10.076000	-0.016160
10.078000	-0.015244
10.080000	-0.014639
10.082000	-0.013119
10.084000	-0.011287
10.086000	-0.008538
10.088000	-0.007310
10.090000	-0.005478
10.092000	-0.003353
10.094000	-0.001209
10.096000	0.000000
10.098000	0.000916
10.100000	0.001832
10.102000	0.002749
10.104000	0.003665
10.106000	0.004581
10.108000	0.006121
10.110000	0.007641
10.112000	0.008557
10.114000	0.009162
10.116000	0.009474
10.118000	0.009474
10.120000	0.008246
10.122000	0.007329
10.124000	0.006413
10.126000	0.005497
10.128000	0.004288
10.130000	0.004288
10.132000	0.005205
10.134000	0.007037
10.136000	0.008869
10.138000	0.010078
10.140000	0.011598
10.142000	0.012827
10.144000	0.013743
10.146000	0.014347
10.148000	0.015263
10.150000	0.016179
10.152000	0.016803
10.154000	0.016179
10.156000	0.015887
10.158000	0.014971
10.160000	0.013138
10.162000	0.010078
10.164000	0.006413
10.166000	0.003060
10.168000	0.000000
10.170000	-0.001520
10.172000	-0.002125
10.174000	-0.002437
10.176000	-0.002729
10.178000	-0.002437
10.180000	-0.001520
10.182000	0.000000
10.184000	0.002144
10.186000	0.005497
10.188000	0.010682
10.190000	0.017407
10.192000	0.025945
10.194000	0.034795
10.196000	0.043353
10.198000	0.048830
10.200000	0.051579
10.202000	0.050058
10.204000	0.045478
10.206000	0.036316
10.208000	0.025029
10.210000	0.012827
10.212000	-0.001209
10.214000	-0.014035
10.216000	-0.024405
10.218000	-0.032651
10.220000	-0.039045
10.222000	-0.043333
10.224000	-0.045166
10.226000	-0.044250
10.228000	-0.042417
10.230000	-0.039045
10.232000	-0.035088
10.234000	-0.030195
10.236000	-0.025010
10.238000	-0.018908
10.240000	-0.013411
10.242000	-0.008850
10.244000	-0.004873
10.246000	-0.002437
10.248000	-0.002125
10.250000	-0.004269
10.252000	-0.007310
10.254000	-0.011891
10.256000	-0.017700
10.258000	-0.023489
10.260000	-0.029279
10.262000	-0.033567
10.264000	-0.036316
10.266000	-0.038129
10.268000	-0.038441
10.270000	-0.036920
10.272000	-0.034172
10.274000	-0.030819
10.276000	-0.026550
10.278000	-0.022573
10.280000	-0.018596
10.282000	-0.014327
10.284000	-0.010975
10.286000	-0.008226
10.288000	-0.006706
10.290000	-0.006706
10.292000	-0.007018
10.294000	-0.008850
10.296000	-0.012495
10.298000	-0.016784
10.300000	-0.020741
10.302000	-0.024405
10.304000	-0.027466
10.306000	-0.029279
10.308000	-0.030195
10.310000	-0.030195
10.312000	-0.028363
10.314000	-0.025926
10.316000	-0.022573
10.318000	-0.018908
10.320000	-0.015556
10.322000	-0.012495
10.324000	-0.009454
10.326000	-0.006706
10.328000	-0.004269
10.330000	-0.001813
10.332000	0.000312
10.334000	0.002144
10.336000	0.003665
10.338000	0.006121
10.340000	0.008246
10.342000	0.010682
10.344000	0.014971
10.346000	0.019844
10.348000	0.027466
10.350000	0.036316
10.352000	0.046082
10.354000	0.056160
10.356000	0.066842
10.358000	0.075692
10.360000	0.083021
10.362000	0.085770
10.364000	0.083626
10.366000	0.076920
10.368000	0.065322
10.370000	0.050975
10.372000	0.033879
10.374000	0.014971
10.376000	-0.002729
10.378000	-0.018596
10.380000	-0.031735
10.382000	-0.041793
10.384000	-0.048207
10.386000	-0.052183
10.388000	-0.054016
10.390000	-0.053704
10.392000	-0.052788
10.394000	-0.051871
10.396000	-0.051559
10.398000	-0.051871
10.400000	-0.051559
10.402000	-0.052183
10.404000	-0.052476
10.406000	-0.052476
10.408000	-0.052183
10.410000	-0.051871
10.412000	-0.051267
10.414000	-0.049727
10.416000	-0.048811
10.418000	-0.047602
10.420000	-0.046062
10.422000	-0.044854
10.424000	-0.043021
10.426000	-0.040585
10.428000	-0.038129
10.430000	-0.035400
10.432000	-0.032943
10.434000	-0.030507
10.436000	-0.028674
10.438000	-0.026550
10.440000	-0.024717
10.442000	-0.023801
10.444000	-0.023177
10.446000	-0.023801
10.448000	-0.024094
10.450000	-0.024405
10.452000	-0.022573
10.454000	-0.015556
10.456000	-0.001813
10.458000	0.019532
10.460000	0.050058
10.462000	0.091248
10.464000	0.142222
10.466000	0.202027
10.468000	0.264600
10.470000	0.319220
10.472000	0.354327
10.474000	0.361345
10.476000	0.337232
10.478000	0.284737
10.480000	0.207836
10.482000	0.115068
10.484000	0.016491
10.486000	-0.075361
10.488000	-0.149825
10.490000	-0.198655
10.492000	-0.218499
10.494000	-0.212398
10.496000	-0.187368
10.498000	-0.151657
10.500000	-0.113821
10.502000	-0.079649
10.504000	-0.053704
10.506000	-0.036004
10.508000	-0.026550
10.510000	-0.023177
10.512000	-0.022261
10.514000	-0.024094
10.516000	-0.024717
10.518000	-0.025322
10.520000	-0.024405
10.522000	-0.023177
10.524000	-0.020741
10.526000	-0.019513
10.528000	-0.017992
10.530000	-0.017700
10.532000	-0.017700
10.534000	-0.018596
10.536000	-0.019513
10.538000	-0.020136
10.540000	-0.020136
10.542000	-0.019220
10.544000	-0.017700
10.546000	-0.015556
10.548000	-0.013119
10.550000	-0.009747
10.552000	-0.006706
10.554000	-0.004269
10.556000	-0.001813
10.558000	0.000916
10.560000	0.003372
10.562000	0.003665
10.564000	0.003977
10.566000	0.002456
10.568000	0.000312
10.570000	-0.002437
10.572000	-0.004873
10.574000	-0.007622
10.576000	-0.009747
10.578000	-0.011579
10.580000	-0.012203
10.582000	-0.010975
10.584000	-0.009142
10.586000	-0.006706
10.588000	-0.003353
10.590000	0.000312
10.592000	0.002749
10.594000	0.006121
10.596000	0.008246
10.598000	0.011306
10.600000	0.013743
10.602000	0.016491
10.604000	0.018928
10.606000	0.021072
10.608000	0.021676
10.610000	0.021072
10.612000	0.019532
10.614000	0.016803
10.616000	0.013431
10.618000	0.008869
10.620000	0.003977
10.622000	-0.000897
10.624000	-0.003645
10.626000	-0.005789
10.628000	-0.005185
10.630000	-0.003041
10.632000	0.001832
10.634000	0.008557
10.636000	0.016803
10.638000	0.026569
10.640000	0.035419
10.642000	0.043645
10.644000	0.050058
10.646000	0.054327
10.648000	0.054639
10.650000	0.050975
10.652000	0.044269
10.654000	0.035419
10.656000	0.026257
10.658000	0.015263
10.660000	0.006121
10.662000	-0.003957
10.664000	-0.013119
10.666000	-0.021657
10.668000	-0.027758
10.670000	-0.032027
10.672000	-0.036316
10.674000	-0.038129
10.676000	-0.038752
10.678000	-0.037836
10.680000	-0.035088
10.682000	-0.031423
10.684000	-0.027154
10.686000	-0.023489
10.688000	-0.021053
10.690000	-0.019220
10.692000	-0.018304
10.694000	-0.017992
10.696000	-0.017388
10.698000	-0.017388
10.700000	-0.017076
10.702000	-0.016784
10.704000	-0.016160
10.706000	-0.015867
10.708000	-0.014951
10.710000	-0.014951
10.712000	-0.014639
10.714000	-0.014951
10.716000	-0.014951
10.718000	-0.014639
10.720000	-0.014327
10.722000	-0.014035
10.724000	-0.013119
10.726000	-0.012807
10.728000	-0.014327
10.730000	-0.015867
10.732000	-0.017076
10.734000	-0.017700
10.736000	-0.018596
10.738000	-0.020136
10.740000	-0.020741
10.742000	-0.020136
10.744000	-0.018304
10.746000	-0.015556
10.748000	-0.012807
10.750000	-0.010058
10.752000	-0.007934
10.754000	-0.006101
10.756000	-0.004561
10.758000	-0.003353
10.760000	-0.003645
10.762000	-0.003957
10.764000	-0.005789
10.766000	-0.007622
10.768000	-0.008226
10.770000	-0.008538
10.772000	-0.007018
10.774000	-0.003041
10.776000	0.003665
10.778000	0.012827
10.780000	0.024113
10.782000	0.037856
10.784000	0.051891
10.786000	0.065926
10.788000	0.077524
10.790000	0.086979
10.792000	0.092476
10.794000	0.092788
10.796000	0.087895
10.798000	0.078752
10.800000	0.064698
10.802000	0.047914
10.804000	0.029006
10.806000	0.009766
10.808000	-0.008850
10.810000	-0.025926
10.812000	-0.040877
10.814000	-0.052476
10.816000	-0.060721
10.818000	-0.064990
10.820000	-0.066823
10.822000	-0.065906
10.824000	-0.063158
10.826000	-0.059201
10.828000	-0.055536
10.830000	-0.051559
10.832000	-0.047895
10.834000	-0.045166
10.836000	-0.042710
10.838000	-0.041189
10.840000	-0.041189
10.842000	-0.041793
10.844000	-0.043626
10.846000	-0.045458
10.848000	-0.047290
10.850000	-0.049123
10.852000	-0.050643
10.854000	-0.052476
10.856000	-0.053704
10.858000	-0.054016
10.860000	-0.054016
10.862000	-0.052788
10.864000	-0.051267
10.866000	-0.050039
10.868000	-0.048519
10.870000	-0.047602
10.872000	-0.046374
10.874000	-0.045458
10.876000	-0.043626
10.878000	-0.041189
10.880000	-0.036004
10.882000	-0.025926
10.884000	-0.009747
10.886000	0.014055
10.888000	0.045789
10.890000	0.086062
10.892000	0.135205
10.894000	0.191365
10.896000	0.249025
10.898000	0.299396
10.900000	0.332047
10.902000	0.339980
10.904000	0.318304
10.906000	0.269474
10.908000	0.196842
10.910000	0.108051
10.912000	0.013431
10.914000	-0.076589
10.916000	-0.151053
10.918000	-0.202008
10.920000	-0.224912
10.922000	-0.222456
10.924000	-0.200195
10.926000	-0.166004
10.928000	-0.127563
10.930000	-0.092768
10.932000	-0.064678
10.934000	-0.045458
10.936000	-0.033860
10.938000	-0.029279
10.940000	-0.028070
10.942000	-0.028674
10.944000	-0.030195
10.946000	-0.031111
10.948000	-0.030507
10.950000	-0.029903
10.952000	-0.028363
10.954000	-0.026842
10.956000	-0.025634
10.958000	-0.024717
10.960000	-0.023489
10.962000	-0.022573
10.964000	-0.020741
10.966000	-0.017992
10.968000	-0.016160
10.970000	-0.013723
10.972000	-0.011891
10.974000	-0.010370
10.976000	-0.009747
10.978000	-0.010663
10.980000	-0.011579
10.982000	-0.013411
10.984000	-0.015244
10.986000	-0.017388
10.988000	-0.018908
10.990000	-0.019825
10.992000	-0.020429
10.994000	-0.019220
10.996000	-0.017700
10.998000	-0.015244
11.000000	-0.012495
11.002000	-0.010370
11.004000	-0.007622
11.006000	-0.004561
11.008000	-0.002125
11.010000	-0.001209
11.012000	0.000000
11.014000	-0.000604
11.016000	-0.000604
11.018000	-0.000292
11.020000	0.000312
11.022000	0.001228
11.024000	0.001228
11.026000	0.000624
11.028000	0.000000
11.030000	-0.000897
11.032000	-0.002125
11.034000	-0.005185
11.036000	-0.008538
11.038000	-0.011891
11.040000	-0.014035
11.042000	-0.015244
11.044000	-0.016160
11.046000	-0.016784
11.048000	-0.015867
11.050000	-0.013411
11.052000	-0.010058
11.054000	-0.007018
11.056000	-0.003353
11.058000	0.000916
11.060000	0.005205
11.062000	0.009766
11.064000	0.014055
11.066000	0.018012
11.068000	0.021365
11.070000	0.022281
11.072000	0.022593
11.074000	0.021365
11.076000	0.018324
11.078000	0.014347
11.080000	0.008557
11.082000	0.001832
11.084000	-0.004873
11.086000	-0.011891
11.088000	-0.017388
11.090000	-0.021969
11.092000	-0.025322
11.094000	-0.028070
11.096000	-0.031423
11.098000	-0.033567
11.100000	-0.034483
11.102000	-0.034776
11.104000	-0.034776
11.106000	-0.034483
11.108000	-0.033860
11.110000	-0.033567
11.112000	-0.033860
11.114000	-0.034172
11.116000	-0.034483
11.118000	-0.034776
11.120000	-0.036004
11.122000	-0.037212
11.124000	-0.038129
11.126000	-0.039045
11.128000	-0.039357
11.130000	-0.038129
11.132000	-0.036316
11.134000	-0.034776
11.136000	-0.033567
11.138000	-0.032339
11.140000	-0.031111
11.142000	-0.030819
11.144000	-0.029903
11.146000	-0.029279
11.148000	-0.029279
11.150000	-0.028986
11.152000	-0.028674
11.154000	-0.028070
11.156000	-0.028070
11.158000	-0.027154
11.160000	-0.026238
11.162000	-0.025634
11.164000	-0.025322
11.166000	-0.025926
11.168000	-0.025634
11.170000	-0.025634
11.172000	-0.025634
11.174000	-0.025634
11.176000	-0.025322
11.178000	-0.025010
11.180000	-0.024717
11.182000	-0.022261
11.184000	-0.020429
11.186000	-0.018596
11.188000	-0.017992
11.190000	-0.017388
11.192000	-0.017388
11.194000	-0.017388
11.196000	-0.017388
11.198000	-0.017700
11.200000	-0.017700
11.202000	-0.016472
11.204000	-0.014327
11.206000	-0.010370
11.208000	-0.006706
11.210000	-0.003645
11.212000	-0.001209
11.214000	0.000312
11.216000	0.001540
11.218000	0.002456
11.220000	0.003977
11.222000	0.007641
11.224000	0.012222
11.226000	0.020448
11.228000	0.030214
11.230000	0.042125
11.232000	0.054327
11.234000	0.064405
11.236000	0.072027
11.238000	0.074172
11.240000	0.072339
11.242000	0.064405
11.244000	0.052807
11.246000	0.038148
11.248000	0.022593
11.250000	0.006725
11.252000	-0.008538
11.254000	-0.022261
11.256000	-0.033255
11.258000	-0.042105
11.260000	-0.048519
11.262000	-0.052183
11.264000	-0.054308
11.266000	-0.055224
11.268000	-0.054016
11.270000	-0.050955
11.272000	-0.048207
11.274000	-0.043938
11.276000	-0.039961
11.278000	-0.036608
11.280000	-0.032943
11.282000	-0.030819
11.284000	-0.029591
11.286000	-0.028674
11.288000	-0.028070
11.290000	-0.028363
11.292000	-0.028986
11.294000	-0.029903
11.296000	-0.029591
11.298000	-0.029279
11.300000	-0.029591
11.302000	-0.029279
11.304000	-0.030195
11.306000	-0.029903
11.308000	-0.030195
11.310000	-0.029903
11.312000	-0.030507
11.314000	-0.030507
11.316000	-0.030507
11.318000	-0.030507
11.320000	-0.030195
11.322000	-0.029903
11.324000	-0.029591
11.326000	-0.028986
11.328000	-0.027154
11.330000	-0.025634
11.332000	-0.023177
11.334000	-0.018304
11.336000	-0.009454
11.338000	0.004893
11.340000	0.025653
11.342000	0.053723
11.344000	0.089727
11.346000	0.134288
11.348000	0.184327
11.350000	0.236218
11.352000	0.282300
11.354000	0.313119
11.356000	0.321053
11.358000	0.303041
11.360000	0.258791
11.362000	0.193489
11.364000	0.112612
11.366000	0.025945
11.368000	-0.055828
11.370000	-0.123899
11.372000	-0.169981
11.374000	-0.190429
11.376000	-0.187368
11.378000	-0.166004
11.380000	-0.133665
11.382000	-0.097641
11.384000	-0.064678
11.386000	-0.039045
11.388000	-0.021969
11.390000	-0.013723
11.392000	-0.012807
11.394000	-0.015867
11.396000	-0.020741
11.398000	-0.025926
11.400000	-0.030195
11.402000	-0.031423
11.404000	-0.030195
11.406000	-0.027154
11.408000	-0.022573
11.410000	-0.016784
11.412000	-0.010663
11.414000	-0.004873
11.416000	0.000624
11.418000	0.004581
11.420000	0.008246
11.422000	0.010078
11.424000	0.010390
11.426000	0.010994
11.428000	0.008869
11.430000	0.006725
11.432000	0.004581
11.434000	0.002749
11.436000	0.000312
11.438000	-0.000897
11.440000	-0.002125
11.442000	-0.001520
11.444000	-0.000897
11.446000	0.000624
11.448000	0.003060
11.450000	0.005809
11.452000	0.007953
11.454000	0.010390
11.456000	0.012222
11.458000	0.013743
11.460000	0.014659
11.462000	0.014971
11.464000	0.014347
11.466000	0.013138
11.468000	0.013431
11.470000	0.013138
11.472000	0.013138
11.474000	0.012515
11.476000	0.013431
11.478000	0.013431
11.480000	0.014659
11.482000	0.014971
11.484000	0.014971
11.486000	0.014659
11.488000	0.012515
11.490000	0.010078
11.492000	0.006725
11.494000	0.003665
11.496000	0.000000
11.498000	-0.002437
11.500000	-0.004269
11.502000	-0.005789
11.504000	-0.006394
11.506000	-0.006101
11.508000	-0.006394
11.510000	-0.006394
11.512000	-0.005185
11.514000	-0.002437
11.516000	0.001228
11.518000	0.005809
11.520000	0.012222
11.522000	0.019240
11.524000	0.027173
11.526000	0.033587
11.528000	0.038460
11.530000	0.041209
11.532000	0.040604
11.534000	0.036628
11.536000	0.031131
11.538000	0.023821
11.540000	0.015263
11.542000	0.007037
11.544000	-0.000604
11.546000	-0.006101
11.548000	-0.011891
11.550000	-0.016472
11.552000	-0.020429
11.554000	-0.023489
11.556000	-0.026550
11.558000	-0.028986
11.560000	-0.030507
11.562000	-0.031423
11.564000	-0.031111
11.566000	-0.030507
11.568000	-0.028986
11.570000	-0.026842
11.572000	-0.024094
11.574000	-0.021053
11.576000	-0.018596
11.578000	-0.016160
11.580000	-0.014327
11.582000	-0.013411
11.584000	-0.012807
11.586000	-0.013119
11.588000	-0.014327
11.590000	-0.016472
11.592000	-0.018596
11.594000	-0.020741
11.596000	-0.023489
11.598000	-0.025926
11.600000	-0.026550
11.602000	-0.026238
11.604000	-0.025010
11.606000	-0.023177
11.608000	-0.021053
11.610000	-0.017076
11.612000	-0.012495
11.614000	-0.007622
11.616000	-0.003957
11.618000	-0.002437
11.620000	-0.002125
11.622000	-0.003957
11.624000	-0.007018
11.626000	-0.012203
11.628000	-0.017388
11.630000	-0.022573
11.632000	-0.027154
11.634000	-0.029279
11.636000	-0.030195
11.638000	-0.029279
11.640000	-0.025634
11.642000	-0.021053
11.644000	-0.016784
11.646000	-0.013119
11.648000	-0.010975
11.650000	-0.010058
11.652000	-0.010370
11.654000	-0.011579
11.656000	-0.014327
11.658000	-0.017076
11.660000	-0.019825
11.662000	-0.021969
11.664000	-0.022885
11.666000	-0.022573
11.668000	-0.020429
11.670000	-0.018304
11.672000	-0.014951
11.674000	-0.011287
11.676000	-0.008538
11.678000	-0.006394
11.680000	-0.004561
11.682000	-0.002729
11.684000	-0.002125
11.686000	-0.001813
11.688000	-0.002729
11.690000	-0.003957
11.692000	-0.005185
11.694000	-0.005478
11.696000	-0.007018
11.698000	-0.007622
11.700000	-0.009142
11.702000	-0.010058
11.704000	-0.011287
11.706000	-0.011891
11.708000	-0.012495
11.710000	-0.012495
11.712000	-0.011891
11.714000	-0.010663
11.716000	-0.009747
11.718000	-0.008850
11.720000	-0.007622
11.722000	-0.006101
11.724000	-0.003957
11.726000	-0.002125
11.728000	-0.001209
11.730000	-0.001520
11.732000	-0.001813
11.734000	-0.002729
11.736000	-0.004873
11.738000	-0.007018
11.740000	-0.008850
11.742000	-0.010663
11.744000	-0.011579
11.746000	-0.011287
11.748000	-0.009454
11.750000	-0.006101
11.752000	-0.001813
11.754000	0.002749
11.756000	0.006725
11.758000	0.010994
11.760000	0.014347
11.762000	0.016803
11.764000	0.020760
11.766000	0.023509
11.768000	0.028090
11.770000	0.033275
11.772000	0.040897
11.774000	0.049142
11.776000	0.058596
11.778000	0.068363
11.780000	0.077212
11.782000	0.083938
11.784000	0.088519
11.786000	0.089435
11.788000	0.084854
11.790000	0.075692
11.792000	0.062885
11.794000	0.046394
11.796000	0.028090
11.798000	0.008246
11.800000	-0.009747
11.802000	-0.025322
11.804000	-0.036920
11.806000	-0.044542
11.808000	-0.047290
11.810000	-0.047290
11.812000	-0.044854
11.814000	-0.041501
11.816000	-0.037212
11.818000	-0.034483
11.820000	-0.032651
11.822000	-0.033255
11.824000	-0.034776
11.826000	-0.037836
11.828000	-0.040585
11.830000	-0.043333
11.832000	-0.045770
11.834000	-0.046374
11.836000	-0.046374
11.838000	-0.046374
11.840000	-0.044854
11.842000	-0.043021
11.844000	-0.039961
11.846000	-0.036004
11.848000	-0.031423
11.850000	-0.027758
11.852000	-0.024094
11.854000	-0.021345
11.856000	-0.019220
11.858000	-0.017700
11.860000	-0.017388
11.862000	-0.019220
11.864000	-0.021969
11.866000	-0.024405
11.868000	-0.027758
11.870000	-0.029903
11.872000	-0.032027
11.874000	-0.032339
11.876000	-0.032339
11.878000	-0.031423
11.880000	-0.026842
11.882000	-0.016784
11.884000	-0.000897
11.886000	0.021365
11.888000	0.050663
11.890000	0.088207
11.892000	0.134600
11.894000	0.186784
11.896000	0.238967
11.898000	0.283216
11.900000	0.310975
11.902000	0.314035
11.904000	0.290838
11.906000	0.242320
11.908000	0.171209
11.910000	0.085770
11.912000	-0.002729
11.914000	-0.085127
11.916000	-0.150741
11.918000	-0.193782
11.920000	-0.210253
11.922000	-0.202320
11.924000	-0.175458
11.926000	-0.138538
11.928000	-0.098265
11.930000	-0.061326
11.932000	-0.032339
11.934000	-0.012203
11.936000	-0.000604
11.938000	0.004288
11.940000	0.003977
11.942000	0.000312
11.944000	-0.003957
11.946000	-0.007934
11.948000	-0.011579
11.950000	-0.014639
11.952000	-0.016160
11.954000	-0.016472
11.956000	-0.015556
11.958000	-0.013119
11.960000	-0.009747
11.962000	-0.006101
11.964000	-0.002125
11.966000	0.001228
11.968000	0.004581
11.970000	0.006413
11.972000	0.008246
11.974000	0.008246
11.976000	0.007641
11.978000	0.006121
11.980000	0.003665
11.982000	0.001228
11.984000	-0.001209
11.986000	-0.004561
11.988000	-0.006101
11.990000	-0.007018
11.992000	-0.007310
11.994000	-0.007018
11.996000	-0.005478
11.998000	-0.003645
12.000000	-0.000897
12.002000	0.003060
12.004000	0.007329
12.006000	0.011306
12.008000	0.015263
12.010000	0.018928
12.012000	0.021365
12.014000	0.022904
12.016000	0.023509
12.018000	0.022593
12.020000	0.019844
12.022000	0.016803
12.024000	0.013138
12.026000	0.009162
12.028000	0.006121
12.030000	0.002749
12.032000	0.000916
12.034000	0.000000
12.036000	-0.000292
12.038000	0.001540
12.040000	0.003977
12.042000	0.006725
12.044000	0.010078
12.046000	0.012222
12.048000	0.013743
12.050000	0.014347
12.052000	0.011598
12.054000	0.007329
12.056000	0.002456
12.058000	-0.002729
12.060000	-0.007622
12.062000	-0.010370
12.064000	-0.010663
12.066000	-0.009142
12.068000	-0.005185
12.070000	0.001832
12.072000	0.008869
12.074000	0.016803
12.076000	0.024113
12.078000	0.029922
12.080000	0.033879
12.082000	0.035419
12.084000	0.036628
12.086000	0.036316
12.088000	0.033587
12.090000	0.029006
12.092000	0.023821
12.094000	0.017719
12.096000	0.011306
12.098000	0.005205
12.100000	-0.000604
12.102000	-0.005478
12.104000	-0.009747
12.106000	-0.012807
12.108000	-0.014327
12.110000	-0.015244
12.112000	-0.014639
12.114000	-0.014035
12.116000	-0.012495
12.118000	-0.011287
12.120000	-0.009142
12.122000	-0.007310
12.124000	-0.004269
12.126000	-0.001813
12.128000	0.000916
12.130000	0.002144
12.132000	0.003060
12.134000	0.003372
12.136000	0.003372
12.138000	0.002749
12.140000	0.001540
12.142000	0.000312
12.144000	-0.002729
12.146000	-0.005478
12.148000	-0.008538
12.150000	-0.010975
12.152000	-0.013411
12.154000	-0.014639
12.156000	-0.014951
12.158000	-0.013411
12.160000	-0.011891
12.162000	-0.009142
12.164000	-0.005185
12.166000	-0.001520
12.168000	0.001540
12.170000	0.003060
12.172000	0.003372
12.174000	0.003665
12.176000	0.002144
12.178000	0.000916
12.180000	-0.000292
12.182000	0.000000
12.184000	0.000000
12.186000	0.001228
12.188000	0.002749
12.190000	0.003372
12.192000	0.002456
12.194000	0.001228
12.196000	-0.001520
12.198000	-0.005478
12.200000	-0.010663
12.202000	-0.016160
12.204000	-0.021657
12.206000	-0.025010
12.208000	-0.027154
12.210000	-0.027154
12.212000	-0.024717
12.214000	-0.020429
12.216000	-0.014327
12.218000	-0.007934
12.220000	-0.001520
12.222000	0.006121
12.224000	0.012827
12.226000	0.018324
12.228000	0.023197
12.230000	0.026862
12.232000	0.030838
12.234000	0.035712
12.236000	0.041520
12.238000	0.049747
12.240000	0.059220
12.242000	0.070819
12.244000	0.083021
12.246000	0.095224
12.248000	0.105302
12.250000	0.112612
12.252000	0.115984
12.254000	0.112612
12.256000	0.103470
12.258000	0.087602
12.260000	0.068986
12.262000	0.046706
12.264000	0.025029
12.266000	0.003665
12.268000	-0.015556
12.270000	-0.031423
12.272000	-0.042105
12.274000	-0.047602
12.276000	-0.048811
12.278000	-0.047290
12.280000	-0.043626
12.282000	-0.039961
12.284000	-0.036004
12.286000	-0.033255
12.288000	-0.031423
12.290000	-0.030195
12.292000	-0.029279
12.294000	-0.028674
12.296000	-0.028070
12.298000	-0.026238
12.300000	-0.024717
12.302000	-0.022573
12.304000	-0.020741
12.306000	-0.019220
12.308000	-0.018304
12.310000	-0.017992
12.312000	-0.017992
12.314000	-0.018596
12.316000	-0.018596
12.318000	-0.018304
12.320000	-0.018304
12.322000	-0.017700
12.324000	-0.017700
12.326000	-0.018596
12.328000	-0.019513
12.330000	-0.021053
12.332000	-0.022885
12.334000	-0.025010
12.336000	-0.026238
12.338000	-0.026842
12.340000	-0.025634
12.342000	-0.023489
12.344000	-0.021053
12.346000	-0.017700
12.348000	-0.013119
12.350000	-0.003353
12.352000	0.012222
12.354000	0.034795
12.356000	0.064698
12.358000	0.104074
12.360000	0.153216
12.362000	0.210273
12.364000	0.271306
12.366000	0.325945
12.368000	0.364698
12.370000	0.377212
12.372000	0.359201
12.374000	0.310975
12.376000	0.235906
12.378000	0.143138
12.380000	0.042729
12.382000	-0.053099
12.384000	-0.133957
12.386000	-0.189805
12.388000	-0.217583
12.390000	-0.215750
12.392000	-0.191345
12.394000	-0.153801
12.396000	-0.111072
12.398000	-0.071092
12.400000	-0.037836
12.402000	-0.014327
12.404000	0.000000
12.406000	0.006413
12.408000	0.007953
12.410000	0.005809
12.412000	0.002144
12.414000	-0.000604
12.416000	-0.002729
12.418000	-0.003353
12.420000	-0.002437
12.422000	-0.000604
12.424000	0.002456
12.426000	0.006413
12.428000	0.010390
12.430000	0.013138
12.432000	0.014347
12.434000	0.012827
12.436000	0.010390
12.438000	0.006413
12.440000	0.001832
12.442000	-0.003353
12.444000	-0.008226
12.446000	-0.011891
12.448000	-0.013723
12.450000	-0.013119
12.452000	-0.010663
12.454000	-0.005789
12.456000	0.000000
12.458000	0.005809
12.460000	0.010682
12.462000	0.016179
12.464000	0.021072
12.466000	0.025341
12.468000	0.027173
12.470000	0.028090
12.472000	0.026862
12.474000	0.024737
12.476000	0.021072
12.478000	0.016803
12.480000	0.012222
12.482000	0.006725
12.484000	0.001832
12.486000	-0.002437
12.488000	-0.005478
12.490000	-0.006394
12.492000	-0.006706
12.494000	-0.006394
12.496000	-0.005478
12.498000	-0.003957
12.500000	-0.002729
12.502000	-0.000604
12.504000	0.002144
12.506000	0.004581
12.508000	0.007953
12.510000	0.010994
12.512000	0.014055
12.514000	0.016491
12.516000	0.017719
12.518000	0.017096
12.520000	0.014971
12.522000	0.012827
12.524000	0.010078
12.526000	0.007953
12.528000	0.006725
12.530000	0.006413
12.532000	0.010078
12.534000	0.014971
12.536000	0.021676
12.538000	0.027173
12.540000	0.032359
12.542000	0.034503
12.544000	0.034503
12.546000	0.031442
12.548000	0.025653
12.550000	0.017719
12.552000	0.007953
12.554000	-0.001813
12.556000	-0.010370
12.558000	-0.016784
12.560000	-0.020741
12.562000	-0.023489
12.564000	-0.023801
12.566000	-0.023489
12.568000	-0.022261
12.570000	-0.021053
12.572000	-0.021053
12.574000	-0.021657
12.576000	-0.022885
12.578000	-0.025010
12.580000	-0.027154
12.582000	-0.028986
12.584000	-0.030507
12.586000	-0.031111
12.588000	-0.031111
12.590000	-0.030195
12.592000	-0.028070
12.594000	-0.025634
12.596000	-0.022885
12.598000	-0.020741
12.600000	-0.017700
12.602000	-0.015556
12.604000	-0.014951
12.606000	-0.015556
12.608000	-0.017388
12.610000	-0.019513
12.612000	-0.022573
12.614000	-0.025322
12.616000	-0.028070
12.618000	-0.029591
12.620000	-0.030507
12.622000	-0.029279
12.624000	-0.027758
12.626000	-0.025010
12.628000	-0.022573
12.630000	-0.021053
12.632000	-0.019513
12.634000	-0.018908
12.636000	-0.018908
12.638000	-0.019220
12.640000	-0.020429
12.642000	-0.021053
12.644000	-0.020741
12.646000	-0.019825
12.648000	-0.019220
12.650000	-0.019220
12.652000	-0.019220
12.654000	-0.019513
12.656000	-0.019513
12.658000	-0.019825
12.660000	-0.019513
12.662000	-0.019825
12.664000	-0.019513
12.666000	-0.019220
12.668000	-0.018596
12.670000	-0.017700
12.672000	-0.017076
12.674000	-0.015556
12.676000	-0.014639
12.678000	-0.013119
12.680000	-0.012203
12.682000	-0.010663
12.684000	-0.009142
12.686000	-0.005478
12.688000	-0.000604
12.690000	0.006121
12.692000	0.014659
12.694000	0.025029
12.696000	0.037544
12.698000	0.051287
12.700000	0.064698
12.702000	0.076608
12.704000	0.085458
12.706000	0.090643
12.708000	0.090039
12.710000	0.083021
12.712000	0.070819
12.714000	0.054327
12.716000	0.035107
12.718000	0.014055
12.720000	-0.007310
12.722000	-0.026238
12.724000	-0.042105
12.726000	-0.053704
12.728000	-0.061033
