0.000000	-0.064698
0.002000	-0.054322
0.004000	-0.042725
0.006000	-0.030518
0.008000	-0.016480
0.010000	-0.002747
0.012000	0.008240
0.014000	0.018006
0.016000	0.024720
0.018000	0.028687
0.020000	0.030213
0.022000	0.028382
0.024000	0.024109
0.026000	0.018006
0.028000	0.011597
0.030000	0.005493
0.032000	0.000000
0.034000	-0.004273
0.036000	-0.006714
0.038000	-0.008850
0.040000	-0.010987
0.042000	-0.013123
0.044000	-0.015259
0.046000	-0.018616
0.048000	-0.021973
0.050000	-0.025330
0.052000	-0.029297
0.054000	-0.033875
0.056000	-0.038148
0.058000	-0.041505
0.060000	-0.045777
0.062000	-0.050355
0.064000	-0.056153
0.066000	-0.062867
0.068000	-0.071107
0.070000	-0.080568
0.072000	-0.090944
0.074000	-0.101930
0.076000	-0.112001
0.078000	-0.121157
0.080000	-0.130007
0.082000	-0.138247
0.084000	-0.145571
0.086000	-0.154116
0.088000	-0.162966
0.090000	-0.173037
0.092000	-0.183719
0.094000	-0.194705
0.096000	-0.204166
0.098000	-0.213016
0.100000	-0.220951
0.102000	-0.227054
0.104000	-0.229801
0.106000	-0.231327
0.108000	-0.232547
0.110000	-0.232853
0.112000	-0.231937
0.114000	-0.231022
0.116000	-0.229496
0.118000	-0.226444
0.120000	-0.222782
0.122000	-0.217899
0.124000	-0.212100
0.126000	-0.205081
0.128000	-0.198367
0.130000	-0.192874
0.132000	-0.188296
0.134000	-0.184634
0.136000	-0.182498
0.138000	-0.181582
0.140000	-0.180056
0.142000	-0.179141
0.144000	-0.178531
0.146000	-0.177005
0.148000	-0.173342
0.150000	-0.169375
0.152000	-0.163577
0.154000	-0.157473
0.156000	-0.150759
0.158000	-0.143435
0.160000	-0.135500
0.162000	-0.127871
0.164000	-0.119936
0.166000	-0.112306
0.168000	-0.103456
0.170000	-0.096742
0.172000	-0.090333
0.174000	-0.084535
0.176000	-0.079347
0.178000	-0.076600
0.180000	-0.073548
0.182000	-0.066529
0.184000	-0.050965
0.186000	-0.023804
0.188000	0.014343
0.190000	0.066224
0.192000	0.130007
0.194000	0.205081
0.196000	0.286259
0.198000	0.364080
0.200000	0.426337
0.202000	0.461433
0.204000	0.457465
0.206000	0.414740
0.208000	0.337224
0.210000	0.235599
0.212000	0.121462
0.214000	0.006409
0.216000	-0.096437
0.218000	-0.176089
0.220000	-0.224308
0.222000	-0.238956
0.224000	-0.225834
0.226000	-0.193790
0.228000	-0.153811
0.230000	-0.114443
0.232000	-0.081788
0.234000	-0.059205
0.236000	-0.045777
0.238000	-0.041505
0.240000	-0.043030
0.242000	-0.047303
0.244000	-0.051575
0.246000	-0.054932
0.248000	-0.055848
0.250000	-0.054627
0.252000	-0.051270
0.254000	-0.046693
0.256000	-0.041810
0.258000	-0.036927
0.260000	-0.032959
0.262000	-0.030823
0.264000	-0.029603
0.266000	-0.029908
0.268000	-0.030823
0.270000	-0.033570
0.272000	-0.036927
0.274000	-0.040284
0.276000	-0.043030
0.278000	-0.045777
0.280000	-0.046693
0.282000	-0.046998
0.284000	-0.046998
0.286000	-0.045472
0.288000	-0.043946
0.290000	-0.040589
0.292000	-0.036622
0.294000	-0.032044
0.296000	-0.027771
0.298000	-0.022583
0.300000	-0.018006
0.302000	-0.013733
0.304000	-0.010987
0.306000	-0.008545
0.308000	-0.007324
0.310000	-0.006714
0.312000	-0.006409
0.314000	-0.006714
0.316000	-0.007324
0.318000	-0.007324
0.320000	-0.007935
0.322000	-0.008240
0.324000	-0.009155
0.326000	-0.010071
0.328000	-0.010681
0.330000	-0.010987
0.332000	-0.010987
0.334000	-0.010987
0.336000	-0.008850
0.338000	-0.005798
0.340000	-0.001526
0.342000	0.002747
0.344000	0.007019
0.346000	0.010987
0.348000	0.013123
0.350000	0.012207
0.352000	0.009155
0.354000	0.003662
0.356000	-0.004883
0.358000	-0.014954
0.360000	-0.027466
0.362000	-0.040284
0.364000	-0.052491
0.366000	-0.063783
0.368000	-0.074159
0.370000	-0.083009
0.372000	-0.090028
0.374000	-0.095521
0.376000	-0.100710
0.378000	-0.103761
0.380000	-0.106813
0.382000	-0.109255
0.384000	-0.111086
0.386000	-0.113527
0.388000	-0.115053
0.390000	-0.115969
0.392000	-0.116579
0.394000	-0.116884
0.396000	-0.117494
0.398000	-0.117494
0.400000	-0.116884
0.402000	-0.116274
0.404000	-0.115053
0.406000	-0.113222
0.408000	-0.111391
0.410000	-0.107118
0.412000	-0.102541
0.414000	-0.098268
0.416000	-0.092775
0.418000	-0.089113
0.420000	-0.087282
0.422000	-0.085451
0.424000	-0.084230
0.426000	-0.083619
0.428000	-0.083925
0.430000	-0.083925
0.432000	-0.083009
0.434000	-0.082399
0.436000	-0.079957
0.438000	-0.077516
0.440000	-0.075685
0.442000	-0.072938
0.444000	-0.070192
0.446000	-0.067750
0.448000	-0.064698
0.450000	-0.063478
0.452000	-0.062257
0.454000	-0.061036
0.456000	-0.060426
0.458000	-0.059510
0.460000	-0.059510
0.462000	-0.059510
0.464000	-0.059815
0.466000	-0.060731
0.468000	-0.061646
0.470000	-0.062257
0.472000	-0.063783
0.474000	-0.064698
0.476000	-0.065309
0.478000	-0.065614
0.480000	-0.065919
0.482000	-0.065309
0.484000	-0.065003
0.486000	-0.065309
0.488000	-0.064698
0.490000	-0.064393
0.492000	-0.064698
0.494000	-0.065003
0.496000	-0.065309
0.498000	-0.065614
0.500000	-0.065614
0.502000	-0.065614
0.504000	-0.065614
0.506000	-0.064393
0.508000	-0.063478
0.510000	-0.063172
0.512000	-0.062867
0.514000	-0.062257
0.516000	-0.061952
0.518000	-0.061646
0.520000	-0.061952
0.522000	-0.061036
0.524000	-0.061036
0.526000	-0.060426
0.528000	-0.059510
0.530000	-0.058289
0.532000	-0.057069
0.534000	-0.056458
0.536000	-0.057069
0.538000	-0.057679
0.540000	-0.059205
0.542000	-0.061036
0.544000	-0.064393
0.546000	-0.068360
0.548000	-0.072633
0.550000	-0.075990
0.552000	-0.079347
0.554000	-0.082399
0.556000	-0.084535
0.558000	-0.086061
0.560000	-0.086671
0.562000	-0.086366
0.564000	-0.086061
0.566000	-0.084840
0.568000	-0.080873
0.570000	-0.075380
0.572000	-0.068971
0.574000	-0.061646
0.576000	-0.053101
0.578000	-0.043946
0.580000	-0.035096
0.582000	-0.027161
0.584000	-0.021057
0.586000	-0.015869
0.588000	-0.012207
0.590000	-0.010071
0.592000	-0.008240
0.594000	-0.007019
0.596000	-0.005493
0.598000	-0.003662
0.600000	-0.001526
0.602000	0.000000
0.604000	0.002136
0.606000	0.002747
0.608000	0.003052
0.610000	0.002136
0.612000	0.001831
0.614000	0.001526
0.616000	0.001831
0.618000	0.004578
0.620000	0.010987
0.622000	0.019226
0.624000	0.028992
0.626000	0.038148
0.628000	0.047913
0.630000	0.054932
0.632000	0.057984
0.634000	0.057984
0.636000	0.054932
0.638000	0.049744
0.640000	0.042420
0.642000	0.035706
0.644000	0.029908
0.646000	0.025940
0.648000	0.023194
0.650000	0.021973
0.652000	0.020752
0.654000	0.019837
0.656000	0.018311
0.658000	0.016480
0.660000	0.013428
0.662000	0.009461
0.664000	0.006104
0.666000	0.003662
0.668000	0.001221
0.670000	-0.000610
0.672000	-0.002747
0.674000	-0.004883
0.676000	-0.007324
0.678000	-0.010376
0.680000	-0.014649
0.682000	-0.020142
0.684000	-0.027161
0.686000	-0.034180
0.688000	-0.040894
0.690000	-0.046693
0.692000	-0.051575
0.694000	-0.054932
0.696000	-0.058289
0.698000	-0.061646
0.700000	-0.063478
0.702000	-0.057679
0.704000	-0.043946
0.706000	-0.018921
0.708000	0.017395
0.710000	0.065309
0.712000	0.124819
0.714000	0.192874
0.716000	0.265812
0.718000	0.331731
0.720000	0.381781
0.722000	0.402228
0.724000	0.385748
0.726000	0.332647
0.728000	0.248417
0.730000	0.144350
0.732000	0.031128
0.734000	-0.079957
0.736000	-0.176089
0.738000	-0.247501
0.740000	-0.288396
0.742000	-0.297856
0.744000	-0.280766
0.746000	-0.248112
0.748000	-0.208133
0.750000	-0.170291
0.752000	-0.139467
0.754000	-0.119326
0.756000	-0.108644
0.758000	-0.105592
0.760000	-0.107424
0.762000	-0.111086
0.764000	-0.115969
0.766000	-0.119631
0.768000	-0.121462
0.770000	-0.121157
0.772000	-0.118715
0.774000	-0.115053
0.776000	-0.111086
0.778000	-0.105898
0.780000	-0.100404
0.782000	-0.095216
0.784000	-0.090639
0.786000	-0.086976
0.788000	-0.084535
0.790000	-0.084535
0.792000	-0.084230
0.794000	-0.084840
0.796000	-0.085451
0.798000	-0.086061
0.800000	-0.086366
0.802000	-0.086061
0.804000	-0.085145
0.806000	-0.083314
0.808000	-0.081483
0.810000	-0.078737
0.812000	-0.075990
0.814000	-0.073548
0.816000	-0.071412
0.818000	-0.068666
0.820000	-0.066529
0.822000	-0.062867
0.824000	-0.059510
0.826000	-0.054932
0.828000	-0.050965
0.830000	-0.046082
0.832000	-0.040894
0.834000	-0.035096
0.836000	-0.028992
0.838000	-0.023194
0.840000	-0.017700
0.842000	-0.012818
0.844000	-0.008545
0.846000	-0.004273
0.848000	-0.001526
0.850000	0.000916
0.852000	0.003052
0.854000	0.005188
0.856000	0.007324
0.858000	0.009155
0.860000	0.012207
0.862000	0.014954
0.864000	0.017395
0.866000	0.019837
0.868000	0.020447
0.870000	0.019837
0.872000	0.018006
0.874000	0.014038
0.876000	0.008240
0.878000	0.001831
0.880000	-0.005798
0.882000	-0.014649
0.884000	-0.023804
0.886000	-0.032654
0.888000	-0.040284
0.890000	-0.046387
0.892000	-0.050660
0.894000	-0.054017
0.896000	-0.055238
0.898000	-0.055848
0.900000	-0.054322
0.902000	-0.052796
0.904000	-0.051881
0.906000	-0.050965
0.908000	-0.051881
0.910000	-0.053712
0.912000	-0.056153
0.914000	-0.060121
0.916000	-0.063172
0.918000	-0.066529
0.920000	-0.069581
0.922000	-0.072023
0.924000	-0.073854
0.926000	-0.075380
0.928000	-0.075685
0.930000	-0.075685
0.932000	-0.074769
0.934000	-0.074159
0.936000	-0.073243
0.938000	-0.071717
0.940000	-0.070192
0.942000	-0.068360
0.944000	-0.066529
0.946000	-0.065003
0.948000	-0.063783
0.950000	-0.062867
0.952000	-0.061036
0.954000	-0.060426
0.956000	-0.059510
0.958000	-0.058289
0.960000	-0.056764
0.962000	-0.055848
0.964000	-0.054322
0.966000	-0.053712
0.968000	-0.054017
0.970000	-0.054017
0.972000	-0.054322
0.974000	-0.054627
0.976000	-0.055543
0.978000	-0.056764
0.980000	-0.057374
0.982000	-0.057374
0.984000	-0.056458
0.986000	-0.054932
0.988000	-0.053101
0.990000	-0.051575
0.992000	-0.050050
0.994000	-0.047913
0.996000	-0.046387
0.998000	-0.045167
1.000000	-0.044556
1.002000	-0.043336
1.004000	-0.043030
1.006000	-0.043030
1.008000	-0.042725
1.010000	-0.043030
1.012000	-0.043641
1.014000	-0.044251
1.016000	-0.044862
1.018000	-0.045777
1.020000	-0.046082
1.022000	-0.046998
1.024000	-0.047608
1.026000	-0.047608
1.028000	-0.047608
1.030000	-0.046998
1.032000	-0.047608
1.034000	-0.048219
1.036000	-0.049134
1.038000	-0.050660
1.040000	-0.052186
1.042000	-0.053101
1.044000	-0.054932
1.046000	-0.055848
1.048000	-0.056153
1.050000	-0.054932
1.052000	-0.053407
1.054000	-0.051270
1.056000	-0.049439
1.058000	-0.047608
1.060000	-0.046082
1.062000	-0.044556
1.064000	-0.044251
1.066000	-0.044556
1.068000	-0.044862
1.070000	-0.045167
1.072000	-0.045777
1.074000	-0.045777
1.076000	-0.044862
1.078000	-0.044251
1.080000	-0.042725
1.082000	-0.041199
1.084000	-0.039063
1.086000	-0.037537
1.088000	-0.037232
1.090000	-0.037232
1.092000	-0.038148
1.094000	-0.039368
1.096000	-0.042725
1.098000	-0.046387
1.100000	-0.050660
1.102000	-0.055543
1.104000	-0.059815
1.106000	-0.062867
1.108000	-0.065614
1.110000	-0.066529
1.112000	-0.066835
1.114000	-0.066224
1.116000	-0.065003
1.118000	-0.064088
1.120000	-0.064088
1.122000	-0.065309
1.124000	-0.067445
1.126000	-0.069581
1.128000	-0.072633
1.130000	-0.077516
1.132000	-0.083009
1.134000	-0.089113
1.136000	-0.095216
1.138000	-0.101320
1.140000	-0.106508
1.142000	-0.111086
1.144000	-0.115053
1.146000	-0.118105
1.148000	-0.118715
1.150000	-0.117494
1.152000	-0.114137
1.154000	-0.109865
1.156000	-0.103761
1.158000	-0.097658
1.160000	-0.092164
1.162000	-0.086061
1.164000	-0.081178
1.166000	-0.076600
1.168000	-0.073243
1.170000	-0.070497
1.172000	-0.067750
1.174000	-0.065919
1.176000	-0.064088
1.178000	-0.062257
1.180000	-0.061036
1.182000	-0.058289
1.184000	-0.055238
1.186000	-0.051575
1.188000	-0.046693
1.190000	-0.042115
1.192000	-0.037537
1.194000	-0.032044
1.196000	-0.025940
1.198000	-0.019226
1.200000	-0.012818
1.202000	-0.007630
1.204000	-0.003052
1.206000	0.000305
1.208000	0.002136
1.210000	0.002136
1.212000	-0.000305
1.214000	-0.005798
1.216000	-0.013123
1.218000	-0.021363
1.220000	-0.030518
1.222000	-0.040284
1.224000	-0.049134
1.226000	-0.055848
1.228000	-0.061646
1.230000	-0.065919
1.232000	-0.068360
1.234000	-0.069886
1.236000	-0.071107
1.238000	-0.071412
1.240000	-0.072328
1.242000	-0.072938
1.244000	-0.074159
1.246000	-0.075990
1.248000	-0.078431
1.250000	-0.081483
1.252000	-0.084535
1.254000	-0.088502
1.256000	-0.091249
1.258000	-0.092775
1.260000	-0.092775
1.262000	-0.092164
1.264000	-0.090639
1.266000	-0.089723
1.268000	-0.086366
1.270000	-0.075685
1.272000	-0.056153
1.274000	-0.026246
1.276000	0.014343
1.278000	0.065919
1.280000	0.127260
1.282000	0.195621
1.284000	0.265202
1.286000	0.328069
1.288000	0.372320
1.290000	0.386358
1.292000	0.363470
1.294000	0.305180
1.296000	0.219425
1.298000	0.116579
1.300000	0.007630
1.302000	-0.096132
1.304000	-0.184634
1.306000	-0.247501
1.308000	-0.279240
1.310000	-0.279850
1.312000	-0.256352
1.314000	-0.216373
1.316000	-0.171817
1.318000	-0.131228
1.320000	-0.099184
1.322000	-0.077821
1.324000	-0.067445
1.326000	-0.065309
1.328000	-0.070192
1.330000	-0.077516
1.332000	-0.086061
1.334000	-0.093690
1.336000	-0.098878
1.338000	-0.102541
1.340000	-0.103456
1.342000	-0.101625
1.344000	-0.098573
1.346000	-0.094301
1.348000	-0.090333
1.350000	-0.086976
1.352000	-0.083619
1.354000	-0.080568
1.356000	-0.078126
1.358000	-0.076600
1.360000	-0.075074
1.362000	-0.073854
1.364000	-0.072633
1.366000	-0.071107
1.368000	-0.070192
1.370000	-0.068360
1.372000	-0.065919
1.374000	-0.064088
1.376000	-0.062562
1.378000	-0.061341
1.380000	-0.060121
1.382000	-0.059815
1.384000	-0.059205
1.386000	-0.058595
1.388000	-0.057984
1.390000	-0.056764
1.392000	-0.054932
1.394000	-0.053407
1.396000	-0.051270
1.398000	-0.049744
1.400000	-0.047608
1.402000	-0.046082
1.404000	-0.045167
1.406000	-0.044556
1.408000	-0.044862
1.410000	-0.044556
1.412000	-0.044251
1.414000	-0.044251
1.416000	-0.043336
1.418000	-0.042420
1.420000	-0.040284
1.422000	-0.038453
1.424000	-0.035401
1.426000	-0.031739
1.428000	-0.026856
1.430000	-0.022583
1.432000	-0.017395
1.434000	-0.013733
1.436000	-0.010987
1.438000	-0.010376
1.440000	-0.010987
1.442000	-0.014954
1.444000	-0.020142
1.446000	-0.028382
1.448000	-0.038148
1.450000	-0.049439
1.452000	-0.061341
1.454000	-0.072938
1.456000	-0.083009
1.458000	-0.092470
1.460000	-0.100099
1.462000	-0.105898
1.464000	-0.110781
1.466000	-0.114443
1.468000	-0.117800
1.470000	-0.120546
1.472000	-0.123293
1.474000	-0.126345
1.476000	-0.129091
1.478000	-0.130617
1.480000	-0.131533
1.482000	-0.132143
1.484000	-0.131838
1.486000	-0.130312
1.488000	-0.127565
1.490000	-0.124208
1.492000	-0.120241
1.494000	-0.116274
1.496000	-0.111696
1.498000	-0.107729
1.500000	-0.103456
1.502000	-0.099794
1.504000	-0.096742
1.506000	-0.094301
1.508000	-0.092775
1.510000	-0.093080
1.512000	-0.093385
1.514000	-0.094606
1.516000	-0.096437
1.518000	-0.097658
1.520000	-0.098573
1.522000	-0.098573
1.524000	-0.097047
1.526000	-0.094911
1.528000	-0.091249
1.530000	-0.086976
1.532000	-0.083314
1.534000	-0.079957
1.536000	-0.077516
1.538000	-0.075990
1.540000	-0.074769
1.542000	-0.074769
1.544000	-0.075074
1.546000	-0.075685
1.548000	-0.076600
1.550000	-0.077211
1.552000	-0.078431
1.554000	-0.080262
1.556000	-0.082399
1.558000	-0.085145
1.560000	-0.087587
1.562000	-0.090333
1.564000	-0.092164
1.566000	-0.092775
1.568000	-0.092775
1.570000	-0.091554
1.572000	-0.089418
1.574000	-0.086976
1.576000	-0.084535
1.578000	-0.082399
1.580000	-0.080873
1.582000	-0.079957
1.584000	-0.079347
1.586000	-0.079042
1.588000	-0.079347
1.590000	-0.079957
1.592000	-0.080873
1.594000	-0.081788
1.596000	-0.083925
1.598000	-0.085145
1.600000	-0.087892
1.602000	-0.091249
1.604000	-0.093690
1.606000	-0.095216
1.608000	-0.095216
1.610000	-0.094301
1.612000	-0.092164
1.614000	-0.089418
1.616000	-0.086061
1.618000	-0.083009
1.620000	-0.079347
1.622000	-0.077211
1.624000	-0.074769
1.626000	-0.073854
1.628000	-0.073548
1.630000	-0.073548
1.632000	-0.073243
1.634000	-0.072938
1.636000	-0.072938
1.638000	-0.072633
1.640000	-0.073548
1.642000	-0.073243
1.644000	-0.072938
1.646000	-0.072633
1.648000	-0.072328
1.650000	-0.072023
1.652000	-0.072938
1.654000	-0.072633
1.656000	-0.072938
1.658000	-0.074464
1.660000	-0.076600
1.662000	-0.079042
1.664000	-0.081483
1.666000	-0.083009
1.668000	-0.084230
1.670000	-0.083619
1.672000	-0.081483
1.674000	-0.077516
1.676000	-0.073854
1.678000	-0.069276
1.680000	-0.065614
1.682000	-0.062257
1.684000	-0.060121
1.686000	-0.058595
1.688000	-0.057679
1.690000	-0.057374
1.692000	-0.056764
1.694000	-0.055848
1.696000	-0.053712
1.698000	-0.052186
1.700000	-0.050050
1.702000	-0.048829
1.704000	-0.047608
1.706000	-0.048219
1.708000	-0.050355
1.710000	-0.054932
1.712000	-0.060121
1.714000	-0.065919
1.716000	-0.070802
1.718000	-0.075685
1.720000	-0.080568
1.722000	-0.085145
1.724000	-0.087892
1.726000	-0.090944
1.728000	-0.092775
1.730000	-0.095216
1.732000	-0.097658
1.734000	-0.100099
1.736000	-0.103151
1.738000	-0.106203
1.740000	-0.108949
1.742000	-0.111086
1.744000	-0.112306
1.746000	-0.112306
1.748000	-0.112001
1.750000	-0.112001
1.752000	-0.112917
1.754000	-0.111086
1.756000	-0.102541
1.758000	-0.083009
1.760000	-0.053101
1.762000	-0.011292
1.764000	0.042420
1.766000	0.108034
1.768000	0.181888
1.770000	0.257877
1.772000	0.325933
1.774000	0.373236
1.776000	0.389105
1.778000	0.366217
1.780000	0.306096
1.782000	0.217288
1.784000	0.109560
1.786000	-0.004578
1.788000	-0.114748
1.790000	-0.206912
1.792000	-0.271916
1.794000	-0.303960
1.796000	-0.303349
1.798000	-0.276799
1.800000	-0.234379
1.802000	-0.185855
1.804000	-0.140993
1.806000	-0.105287
1.808000	-0.081483
1.810000	-0.067750
1.812000	-0.063172
1.814000	-0.064698
1.816000	-0.070802
1.818000	-0.077821
1.820000	-0.084535
1.822000	-0.087892
1.824000	-0.089723
1.826000	-0.089113
1.828000	-0.086061
1.830000	-0.083009
1.832000	-0.079042
1.834000	-0.075074
1.836000	-0.071412
1.838000	-0.068360
1.840000	-0.065919
1.842000	-0.064088
1.844000	-0.061952
1.846000	-0.059205
1.848000	-0.055238
1.850000	-0.051270
1.852000	-0.046998
1.854000	-0.043336
1.856000	-0.040589
1.858000	-0.038148
1.860000	-0.037232
1.862000	-0.037537
1.864000	-0.039368
1.866000	-0.041199
1.868000	-0.043030
1.870000	-0.043336
1.872000	-0.042725
1.874000	-0.041199
1.876000	-0.037842
1.878000	-0.033265
1.880000	-0.028382
1.882000	-0.023804
1.884000	-0.018006
1.886000	-0.012512
1.888000	-0.007935
1.890000	-0.004578
1.892000	-0.002441
1.894000	-0.001526
1.896000	-0.001221
1.898000	-0.003357
1.900000	-0.006409
1.902000	-0.010071
1.904000	-0.013733
1.906000	-0.017395
1.908000	-0.019226
1.910000	-0.019532
1.912000	-0.017700
1.914000	-0.013428
1.916000	-0.007019
1.918000	0.000610
1.920000	0.008545
1.922000	0.015869
1.924000	0.020752
1.926000	0.022278
1.928000	0.020752
1.930000	0.014954
1.932000	0.007019
1.934000	-0.003357
1.936000	-0.015869
1.938000	-0.027771
1.940000	-0.038453
1.942000	-0.046082
1.944000	-0.052186
1.946000	-0.055543
1.948000	-0.057069
1.950000	-0.057374
1.952000	-0.057679
1.954000	-0.057374
1.956000	-0.058289
1.958000	-0.060121
1.960000	-0.062257
1.962000	-0.064088
1.964000	-0.065919
1.966000	-0.067445
1.968000	-0.068971
1.970000	-0.069581
1.972000	-0.069581
1.974000	-0.069886
1.976000	-0.068055
1.978000	-0.067750
1.980000	-0.067750
1.982000	-0.067750
1.984000	-0.067140
1.986000	-0.067445
1.988000	-0.067750
1.990000	-0.068360
1.992000	-0.068666
1.994000	-0.068666
1.996000	-0.068360
1.998000	-0.067445
2.000000	-0.066529
2.002000	-0.065309
2.004000	-0.064393
2.006000	-0.064088
2.008000	-0.063172
2.010000	-0.062562
2.012000	-0.062562
2.014000	-0.062562
2.016000	-0.061952
2.018000	-0.061646
2.020000	-0.061036
2.022000	-0.060121
2.024000	-0.059205
2.026000	-0.057984
2.028000	-0.057374
2.030000	-0.057374
2.032000	-0.057069
2.034000	-0.057679
2.036000	-0.057679
2.038000	-0.058900
2.040000	-0.061036
2.042000	-0.062867
2.044000	-0.064698
2.046000	-0.065003
2.048000	-0.065003
2.050000	-0.065309
2.052000	-0.064393
2.054000	-0.064088
2.056000	-0.063783
2.058000	-0.063783
2.060000	-0.064393
2.062000	-0.065919
2.064000	-0.067750
2.066000	-0.070802
2.068000	-0.073854
2.070000	-0.076600
2.072000	-0.079347
2.074000	-0.080873
2.076000	-0.081483
2.078000	-0.082094
2.080000	-0.081788
2.082000	-0.080568
2.084000	-0.078126
2.086000	-0.074464
2.088000	-0.070192
2.090000	-0.066529
2.092000	-0.062257
2.094000	-0.057984
2.096000	-0.055543
2.098000	-0.054322
2.100000	-0.055543
2.102000	-0.057069
2.104000	-0.058900
2.106000	-0.061036
2.108000	-0.063478
2.110000	-0.064698
2.112000	-0.065614
2.114000	-0.065919
2.116000	-0.065309
2.118000	-0.065309
2.120000	-0.064393
2.122000	-0.065003
2.124000	-0.065614
2.126000	-0.065919
2.128000	-0.065919
2.130000	-0.065919
2.132000	-0.064698
2.134000	-0.063478
2.136000	-0.061646
2.138000	-0.059205
2.140000	-0.057069
2.142000	-0.055543
2.144000	-0.054627
2.146000	-0.054932
2.148000	-0.055238
2.150000	-0.056153
2.152000	-0.056764
2.154000	-0.057679
2.156000	-0.059205
2.158000	-0.059205
2.160000	-0.058595
2.162000	-0.057374
2.164000	-0.056458
2.166000	-0.054932
2.168000	-0.053407
2.170000	-0.052491
2.172000	-0.051881
2.174000	-0.053101
2.176000	-0.054017
2.178000	-0.055848
2.180000	-0.057984
2.182000	-0.060121
2.184000	-0.061952
2.186000	-0.062867
2.188000	-0.062867
2.190000	-0.061952
2.192000	-0.059815
2.194000	-0.057984
2.196000	-0.056153
2.198000	-0.055238
2.200000	-0.055543
2.202000	-0.057984
2.204000	-0.061646
2.206000	-0.066529
2.208000	-0.071412
2.210000	-0.075380
2.212000	-0.079652
2.214000	-0.082094
2.216000	-0.083925
2.218000	-0.083925
2.220000	-0.083314
2.222000	-0.082704
2.224000	-0.082704
2.226000	-0.082704
2.228000	-0.082399
2.230000	-0.082399
2.232000	-0.082399
2.234000	-0.082094
2.236000	-0.081178
2.238000	-0.080262
2.240000	-0.078737
2.242000	-0.078126
2.244000	-0.078126
2.246000	-0.080262
2.248000	-0.083925
2.250000	-0.088502
2.252000	-0.096742
2.254000	-0.105592
2.256000	-0.114748
2.258000	-0.123598
2.260000	-0.131533
2.262000	-0.138552
2.264000	-0.142519
2.266000	-0.144961
2.268000	-0.144350
2.270000	-0.141909
2.272000	-0.137331
2.274000	-0.132448
2.276000	-0.128176
2.278000	-0.123903
2.280000	-0.120546
2.282000	-0.118410
2.284000	-0.116579
2.286000	-0.115969
2.288000	-0.117189
2.290000	-0.120546
2.292000	-0.122683
2.294000	-0.118410
2.296000	-0.105287
2.298000	-0.080262
2.300000	-0.042725
2.302000	0.007324
2.304000	0.071412
2.306000	0.146181
2.308000	0.228580
2.310000	0.309148
2.312000	0.376287
2.314000	0.415656
2.316000	0.418708
2.318000	0.382696
2.320000	0.312505
2.322000	0.216983
2.324000	0.106203
2.326000	-0.007019
2.328000	-0.112001
2.330000	-0.195010
2.332000	-0.247807
2.334000	-0.267948
2.336000	-0.259098
2.338000	-0.229801
2.340000	-0.189822
2.342000	-0.148928
2.344000	-0.114137
2.346000	-0.088197
2.348000	-0.072328
2.350000	-0.065919
2.352000	-0.065919
2.354000	-0.068666
2.356000	-0.074464
2.358000	-0.079042
2.360000	-0.082704
2.362000	-0.083619
2.364000	-0.082704
2.366000	-0.080568
2.368000	-0.075990
2.370000	-0.071412
2.372000	-0.065919
2.374000	-0.061036
2.376000	-0.056764
2.378000	-0.054322
2.380000	-0.053101
2.382000	-0.053407
2.384000	-0.054932
2.386000	-0.056458
2.388000	-0.058900
2.390000	-0.061036
2.392000	-0.062562
2.394000	-0.064393
2.396000	-0.065309
2.398000	-0.064698
2.400000	-0.064088
2.402000	-0.062562
2.404000	-0.060731
2.406000	-0.057374
2.408000	-0.053407
2.410000	-0.048524
2.412000	-0.043641
2.414000	-0.039368
2.416000	-0.035096
2.418000	-0.032349
2.420000	-0.029603
2.422000	-0.028077
2.424000	-0.027466
2.426000	-0.027466
2.428000	-0.027466
2.430000	-0.027161
2.432000	-0.025330
2.434000	-0.023499
2.436000	-0.021057
2.438000	-0.017700
2.440000	-0.014649
2.442000	-0.010681
2.444000	-0.007324
2.446000	-0.002441
2.448000	0.001221
2.450000	0.005493
2.452000	0.009766
2.454000	0.013428
2.456000	0.016785
2.458000	0.019837
2.460000	0.022889
2.462000	0.023499
2.464000	0.022889
2.466000	0.021363
2.468000	0.019226
2.470000	0.015259
2.472000	0.009461
2.474000	0.003357
2.476000	-0.003357
2.478000	-0.011902
2.480000	-0.020447
2.482000	-0.029297
2.484000	-0.037842
2.486000	-0.045777
2.488000	-0.052796
2.490000	-0.057984
2.492000	-0.062867
2.494000	-0.065919
2.496000	-0.067445
2.498000	-0.067750
2.500000	-0.066529
2.502000	-0.065614
2.504000	-0.064088
2.506000	-0.063478
2.508000	-0.062562
2.510000	-0.061341
2.512000	-0.060426
2.514000	-0.058595
2.516000	-0.057069
2.518000	-0.055543
2.520000	-0.053712
2.522000	-0.052186
2.524000	-0.050660
2.526000	-0.048829
2.528000	-0.048219
2.530000	-0.048219
2.532000	-0.048524
2.534000	-0.049134
2.536000	-0.048829
2.538000	-0.049134
2.540000	-0.048829
2.542000	-0.048829
2.544000	-0.049439
2.546000	-0.050050
2.548000	-0.050660
2.550000	-0.051270
2.552000	-0.052796
2.554000	-0.053407
2.556000	-0.054627
2.558000	-0.054322
2.560000	-0.054017
2.562000	-0.053712
2.564000	-0.052796
2.566000	-0.051270
2.568000	-0.050660
2.570000	-0.050355
2.572000	-0.050965
2.574000	-0.052491
2.576000	-0.054932
2.578000	-0.058289
2.580000	-0.062562
2.582000	-0.068055
2.584000	-0.073854
2.586000	-0.078126
2.588000	-0.081788
2.590000	-0.083314
2.592000	-0.083314
2.594000	-0.080873
2.596000	-0.077516
2.598000	-0.073243
2.600000	-0.068971
2.602000	-0.063783
2.604000	-0.059510
2.606000	-0.056458
2.608000	-0.055543
2.610000	-0.055543
2.612000	-0.056458
2.614000	-0.057984
2.616000	-0.060121
2.618000	-0.062867
2.620000	-0.065614
2.622000	-0.068360
2.624000	-0.070802
2.626000	-0.072633
2.628000	-0.074464
2.630000	-0.075074
2.632000	-0.075074
2.634000	-0.075685
2.636000	-0.075380
2.638000	-0.075685
2.640000	-0.075685
2.642000	-0.075380
2.644000	-0.075074
2.646000	-0.074159
2.648000	-0.073548
2.650000	-0.071717
2.652000	-0.069886
2.654000	-0.067750
2.656000	-0.065919
2.658000	-0.063478
2.660000	-0.061036
2.662000	-0.057679
2.664000	-0.054932
2.666000	-0.053407
2.668000	-0.051270
2.670000	-0.048524
2.672000	-0.046998
2.674000	-0.044251
2.676000	-0.041810
2.678000	-0.039673
2.680000	-0.037232
2.682000	-0.035706
2.684000	-0.034180
2.686000	-0.033570
2.688000	-0.033875
2.690000	-0.036316
2.692000	-0.040284
2.694000	-0.045777
2.696000	-0.051270
2.698000	-0.057069
2.700000	-0.062867
2.702000	-0.068055
2.704000	-0.070802
2.706000	-0.071717
2.708000	-0.070802
2.710000	-0.068360
2.712000	-0.064393
2.714000	-0.061341
2.716000	-0.058595
2.718000	-0.056153
2.720000	-0.054932
2.722000	-0.053712
2.724000	-0.052796
2.726000	-0.052491
2.728000	-0.051881
2.730000	-0.051575
2.732000	-0.051270
2.734000	-0.052186
2.736000	-0.050660
2.738000	-0.042420
2.740000	-0.024414
2.742000	0.004578
2.744000	0.045167
2.746000	0.099794
2.748000	0.167849
2.750000	0.246281
2.752000	0.329595
2.754000	0.408331
2.756000	0.468452
2.758000	0.498054
2.760000	0.487984
2.762000	0.438239
2.764000	0.354620
2.766000	0.246281
2.768000	0.125429
2.770000	0.002747
2.772000	-0.106508
2.774000	-0.191653
2.776000	-0.244144
2.778000	-0.263676
2.780000	-0.255131
2.782000	-0.227054
2.784000	-0.189517
2.786000	-0.152285
2.788000	-0.120546
2.790000	-0.097047
2.792000	-0.083314
2.794000	-0.077821
2.796000	-0.077516
2.798000	-0.080568
2.800000	-0.083619
2.802000	-0.086061
2.804000	-0.087282
2.806000	-0.085451
2.808000	-0.081788
2.810000	-0.076600
2.812000	-0.070802
2.814000	-0.065003
2.816000	-0.060121
2.818000	-0.055848
2.820000	-0.052491
2.822000	-0.050355
2.824000	-0.049439
2.826000	-0.048829
2.828000	-0.048219
2.830000	-0.046998
2.832000	-0.045777
2.834000	-0.043946
2.836000	-0.040894
2.838000	-0.038453
2.840000	-0.036011
2.842000	-0.034485
2.844000	-0.033265
2.846000	-0.032959
2.848000	-0.033265
2.850000	-0.034180
2.852000	-0.035706
2.854000	-0.037232
2.856000	-0.038453
2.858000	-0.039673
2.860000	-0.039673
2.862000	-0.039063
2.864000	-0.036927
2.866000	-0.034180
2.868000	-0.030213
2.870000	-0.026246
2.872000	-0.021973
2.874000	-0.018006
2.876000	-0.014343
2.878000	-0.010987
2.880000	-0.009155
2.882000	-0.008850
2.884000	-0.010071
2.886000	-0.011597
2.888000	-0.012818
2.890000	-0.014343
2.892000	-0.015564
2.894000	-0.015564
2.896000	-0.014954
2.898000	-0.014343
2.900000	-0.013733
2.902000	-0.013428
2.904000	-0.014649
2.906000	-0.017700
2.908000	-0.022889
2.910000	-0.029908
2.912000	-0.038453
2.914000	-0.047608
2.916000	-0.057374
2.918000	-0.067140
2.920000	-0.076600
2.922000	-0.084840
2.924000	-0.091249
2.926000	-0.095521
2.928000	-0.099184
2.930000	-0.101015
2.932000	-0.101930
2.934000	-0.101930
2.936000	-0.101625
2.938000	-0.101320
2.940000	-0.101320
2.942000	-0.100404
2.944000	-0.100710
2.946000	-0.100404
2.948000	-0.100099
2.950000	-0.099794
2.952000	-0.099184
2.954000	-0.099184
2.956000	-0.098878
2.958000	-0.098878
2.960000	-0.099489
2.962000	-0.099794
2.964000	-0.100404
2.966000	-0.100710
2.968000	-0.100404
2.970000	-0.100099
2.972000	-0.098268
2.974000	-0.097658
2.976000	-0.096437
2.978000	-0.094911
2.980000	-0.093690
2.982000	-0.092470
2.984000	-0.092470
2.986000	-0.091859
2.988000	-0.091554
2.990000	-0.092164
2.992000	-0.091554
2.994000	-0.091554
2.996000	-0.091554
2.998000	-0.091554
3.000000	-0.091859
3.002000	-0.092470
3.004000	-0.092470
3.006000	-0.093080
3.008000	-0.093385
3.010000	-0.093996
3.012000	-0.094606
3.014000	-0.095216
3.016000	-0.094911
3.018000	-0.093996
3.020000	-0.092470
3.022000	-0.090028
3.024000	-0.086366
3.026000	-0.081483
3.028000	-0.075990
3.030000	-0.069886
3.032000	-0.064698
3.034000	-0.061646
3.036000	-0.060426
3.038000	-0.060426
3.040000	-0.061646
3.042000	-0.064088
3.044000	-0.066835
3.046000	-0.069581
3.048000	-0.071717
3.050000	-0.072633
3.052000	-0.071717
3.054000	-0.070192
3.056000	-0.066835
3.058000	-0.064088
3.060000	-0.061646
3.062000	-0.059815
3.064000	-0.058900
3.066000	-0.058900
3.068000	-0.060426
3.070000	-0.062562
3.072000	-0.065919
3.074000	-0.067750
3.076000	-0.069581
3.078000	-0.070497
3.080000	-0.069886
3.082000	-0.068055
3.084000	-0.066224
3.086000	-0.063478
3.088000	-0.061341
3.090000	-0.059205
3.092000	-0.057984
3.094000	-0.057679
3.096000	-0.057069
3.098000	-0.056764
3.100000	-0.055543
3.102000	-0.054322
3.104000	-0.052796
3.106000	-0.050965
3.108000	-0.048829
3.110000	-0.046082
3.112000	-0.043030
3.114000	-0.039063
3.116000	-0.035401
3.118000	-0.031739
3.120000	-0.028687
3.122000	-0.026246
3.124000	-0.025330
3.126000	-0.025330
3.128000	-0.027771
3.130000	-0.031434
3.132000	-0.035401
3.134000	-0.039979
3.136000	-0.044251
3.138000	-0.047608
3.140000	-0.050050
3.142000	-0.051270
3.144000	-0.052186
3.146000	-0.051881
3.148000	-0.051575
3.150000	-0.050660
3.152000	-0.049744
3.154000	-0.048219
3.156000	-0.047608
3.158000	-0.046387
3.160000	-0.045167
3.162000	-0.044251
3.164000	-0.042420
3.166000	-0.040894
3.168000	-0.041810
3.170000	-0.042725
3.172000	-0.041505
3.174000	-0.032959
3.176000	-0.014649
3.178000	0.015564
3.180000	0.059510
3.182000	0.117494
3.184000	0.188602
3.186000	0.270390
3.188000	0.356146
3.190000	0.435798
3.192000	0.496529
3.194000	0.523690
3.196000	0.511177
3.198000	0.458381
3.200000	0.371405
3.202000	0.260624
3.204000	0.137942
3.206000	0.016785
3.208000	-0.090028
3.210000	-0.171511
3.212000	-0.220035
3.214000	-0.234379
3.216000	-0.220340
3.218000	-0.186160
3.220000	-0.143740
3.222000	-0.100710
3.224000	-0.064088
3.226000	-0.036011
3.228000	-0.018311
3.230000	-0.009461
3.232000	-0.007935
3.234000	-0.010987
3.236000	-0.015564
3.238000	-0.020752
3.240000	-0.025330
3.242000	-0.028992
3.244000	-0.031128
3.246000	-0.031128
3.248000	-0.028992
3.250000	-0.026551
3.252000	-0.024109
3.254000	-0.021973
3.256000	-0.019837
3.258000	-0.017700
3.260000	-0.016785
3.262000	-0.016175
3.264000	-0.016480
3.266000	-0.016480
3.268000	-0.016175
3.270000	-0.015259
3.272000	-0.014343
3.274000	-0.013123
3.276000	-0.012207
3.278000	-0.010071
3.280000	-0.008850
3.282000	-0.008850
3.284000	-0.009155
3.286000	-0.009766
3.288000	-0.011597
3.290000	-0.012818
3.292000	-0.014038
3.294000	-0.013733
3.296000	-0.013123
3.298000	-0.010681
3.300000	-0.007630
3.302000	-0.004578
3.304000	-0.000916
3.306000	0.001526
3.308000	0.005188
3.310000	0.008850
3.312000	0.010987
3.314000	0.011902
3.316000	0.011902
3.318000	0.011902
3.320000	0.011902
3.322000	0.012512
3.324000	0.013428
3.326000	0.014343
3.328000	0.016175
3.330000	0.019226
3.332000	0.022889
3.334000	0.027771
3.336000	0.032349
3.338000	0.036316
3.340000	0.039063
3.342000	0.039368
3.344000	0.037842
3.346000	0.034180
3.348000	0.029908
3.350000	0.024109
3.352000	0.017090
3.354000	0.009766
3.356000	0.002136
3.358000	-0.004883
3.360000	-0.011292
3.362000	-0.016785
3.364000	-0.022278
3.366000	-0.027161
3.368000	-0.030823
3.370000	-0.032959
3.372000	-0.033875
3.374000	-0.034791
3.376000	-0.035096
3.378000	-0.034791
3.380000	-0.034180
3.382000	-0.033875
3.384000	-0.033875
3.386000	-0.034180
3.388000	-0.034791
3.390000	-0.036316
3.392000	-0.037537
3.394000	-0.038453
3.396000	-0.039063
3.398000	-0.039368
3.400000	-0.038758
3.402000	-0.038148
3.404000	-0.037537
3.406000	-0.036316
3.408000	-0.035096
3.410000	-0.034180
3.412000	-0.033265
3.414000	-0.032654
3.416000	-0.032959
3.418000	-0.033875
3.420000	-0.035401
3.422000	-0.037537
3.424000	-0.039673
3.426000	-0.041810
3.428000	-0.043641
3.430000	-0.043641
3.432000	-0.042725
3.434000	-0.040894
3.436000	-0.038758
3.438000	-0.036011
3.440000	-0.032654
3.442000	-0.029603
3.444000	-0.027771
3.446000	-0.026856
3.448000	-0.026856
3.450000	-0.028077
3.452000	-0.029297
3.454000	-0.030518
3.456000	-0.031739
3.458000	-0.032959
3.460000	-0.033570
3.462000	-0.033570
3.464000	-0.033875
3.466000	-0.034180
3.468000	-0.035706
3.470000	-0.036927
3.472000	-0.038758
3.474000	-0.041810
3.476000	-0.044862
3.478000	-0.047913
3.480000	-0.050355
3.482000	-0.052491
3.484000	-0.054627
3.486000	-0.056458
3.488000	-0.058595
3.490000	-0.060121
3.492000	-0.061952
3.494000	-0.063172
3.496000	-0.064698
3.498000	-0.067750
3.500000	-0.069276
3.502000	-0.071412
3.504000	-0.072633
3.506000	-0.073854
3.508000	-0.075990
3.510000	-0.078126
3.512000	-0.080262
3.514000	-0.082704
3.516000	-0.084535
3.518000	-0.087282
3.520000	-0.090028
3.522000	-0.092470
3.524000	-0.094911
3.526000	-0.096742
3.528000	-0.098878
3.530000	-0.100099
3.532000	-0.102846
3.534000	-0.105592
3.536000	-0.107729
3.538000	-0.108034
3.540000	-0.108034
3.542000	-0.107729
3.544000	-0.105898
3.546000	-0.103151
3.548000	-0.099184
3.550000	-0.093996
3.552000	-0.089418
3.554000	-0.085451
3.556000	-0.082399
3.558000	-0.080262
3.560000	-0.078737
3.562000	-0.078431
3.564000	-0.078431
3.566000	-0.079347
3.568000	-0.080568
3.570000	-0.081788
3.572000	-0.083619
3.574000	-0.086366
3.576000	-0.089723
3.578000	-0.092775
3.580000	-0.095521
3.582000	-0.097658
3.584000	-0.099184
3.586000	-0.099184
3.588000	-0.098878
3.590000	-0.097047
3.592000	-0.095216
3.594000	-0.092164
3.596000	-0.089418
3.598000	-0.086061
3.600000	-0.085451
3.602000	-0.085145
3.604000	-0.081178
3.606000	-0.068360
3.608000	-0.044251
3.610000	-0.007324
3.612000	0.042115
3.614000	0.106203
3.616000	0.182498
3.618000	0.267948
3.620000	0.353704
3.622000	0.429694
3.624000	0.481880
3.626000	0.499580
3.628000	0.476387
3.630000	0.414740
3.632000	0.322576
3.634000	0.210575
3.636000	0.090639
3.638000	-0.024109
3.640000	-0.121767
3.642000	-0.189822
3.644000	-0.224613
3.646000	-0.227054
3.648000	-0.204776
3.650000	-0.166934
3.652000	-0.124819
3.654000	-0.085756
3.656000	-0.056153
3.658000	-0.037537
3.660000	-0.028992
3.662000	-0.029297
3.664000	-0.034180
3.666000	-0.041199
3.668000	-0.047608
3.670000	-0.053407
3.672000	-0.057069
3.674000	-0.058289
3.676000	-0.058595
3.678000	-0.056764
3.680000	-0.054932
3.682000	-0.053712
3.684000	-0.051575
3.686000	-0.050355
3.688000	-0.049439
3.690000	-0.048829
3.692000	-0.048524
3.694000	-0.048524
3.696000	-0.049439
3.698000	-0.050355
3.700000	-0.051575
3.702000	-0.053101
3.704000	-0.055543
3.706000	-0.058289
3.708000	-0.060426
3.710000	-0.062562
3.712000	-0.064393
3.714000	-0.066529
3.716000	-0.066835
3.718000	-0.066529
3.720000	-0.064698
3.722000	-0.061646
3.724000	-0.057984
3.726000	-0.053712
3.728000	-0.049134
3.730000	-0.044556
3.732000	-0.040894
3.734000	-0.038453
3.736000	-0.036927
3.738000	-0.036316
3.740000	-0.036011
3.742000	-0.035706
3.744000	-0.035401
3.746000	-0.032959
3.748000	-0.030823
3.750000	-0.026856
3.752000	-0.023499
3.754000	-0.019226
3.756000	-0.014954
3.758000	-0.010681
3.760000	-0.007019
3.762000	-0.003662
3.764000	-0.002136
3.766000	-0.000916
3.768000	-0.000305
3.770000	-0.001221
3.772000	-0.003967
3.774000	-0.007630
3.776000	-0.014038
3.778000	-0.021668
3.780000	-0.030823
3.782000	-0.040589
3.784000	-0.050050
3.786000	-0.059205
3.788000	-0.067750
3.790000	-0.073854
3.792000	-0.078431
3.794000	-0.080873
3.796000	-0.082704
3.798000	-0.084230
3.800000	-0.086061
3.802000	-0.087282
3.804000	-0.089113
3.806000	-0.091859
3.808000	-0.093996
3.810000	-0.095827
3.812000	-0.096742
3.814000	-0.096132
3.816000	-0.094301
3.818000	-0.091554
3.820000	-0.087587
3.822000	-0.083925
3.824000	-0.081483
3.826000	-0.079347
3.828000	-0.078737
3.830000	-0.078126
3.832000	-0.079042
3.834000	-0.079652
3.836000	-0.079957
3.838000	-0.080568
3.840000	-0.079957
3.842000	-0.078126
3.844000	-0.075380
3.846000	-0.073243
3.848000	-0.070497
3.850000	-0.067445
3.852000	-0.064698
3.854000	-0.061952
3.856000	-0.060121
3.858000	-0.058595
3.860000	-0.057679
3.862000	-0.057374
3.864000	-0.056764
3.866000	-0.057069
3.868000	-0.057374
3.870000	-0.057984
3.872000	-0.058595
3.874000	-0.058900
3.876000	-0.058595
3.878000	-0.057679
3.880000	-0.057069
3.882000	-0.056153
3.884000	-0.055238
3.886000	-0.054017
3.888000	-0.052796
3.890000	-0.051881
3.892000	-0.050965
3.894000	-0.050050
3.896000	-0.049744
3.898000	-0.048829
3.900000	-0.049439
3.902000	-0.049744
3.904000	-0.051270
3.906000	-0.051575
3.908000	-0.051881
3.910000	-0.051881
3.912000	-0.052186
3.914000	-0.051881
3.916000	-0.050965
3.918000	-0.049439
3.920000	-0.047608
3.922000	-0.046693
3.924000	-0.045472
3.926000	-0.043946
3.928000	-0.043336
3.930000	-0.042725
3.932000	-0.041810
3.934000	-0.041810
3.936000	-0.040589
3.938000	-0.040894
3.940000	-0.040589
3.942000	-0.041505
3.944000	-0.042115
3.946000	-0.043030
3.948000	-0.044556
3.950000	-0.045777
3.952000	-0.046693
3.954000	-0.046998
3.956000	-0.046387
3.958000	-0.045472
3.960000	-0.044251
3.962000	-0.043641
3.964000	-0.042725
3.966000	-0.042725
3.968000	-0.042115
3.970000	-0.042420
3.972000	-0.042420
3.974000	-0.043336
3.976000	-0.043336
3.978000	-0.042420
3.980000	-0.040894
3.982000	-0.039368
3.984000	-0.038453
3.986000	-0.037842
3.988000	-0.038148
3.990000	-0.038758
3.992000	-0.039979
3.994000	-0.042115
3.996000	-0.043336
3.998000	-0.045472
4.000000	-0.046082
4.002000	-0.046693
4.004000	-0.045777
4.006000	-0.043946
4.008000	-0.041810
4.010000	-0.039979
4.012000	-0.037842
4.014000	-0.036316
4.016000	-0.036316
4.018000	-0.037232
4.020000	-0.038758
4.022000	-0.040589
4.024000	-0.042420
4.026000	-0.044251
4.028000	-0.044862
4.030000	-0.045777
4.032000	-0.045777
4.034000	-0.045777
4.036000	-0.044862
4.038000	-0.044251
4.040000	-0.043946
4.042000	-0.043946
4.044000	-0.043641
4.046000	-0.043641
4.048000	-0.043946
4.050000	-0.045777
4.052000	-0.047608
4.054000	-0.047608
4.056000	-0.039368
4.058000	-0.020142
4.060000	0.010376
4.062000	0.053101
4.064000	0.108644
4.066000	0.176699
4.068000	0.252995
4.070000	0.331121
4.072000	0.400092
4.074000	0.446784
4.076000	0.461128
4.078000	0.436103
4.080000	0.375067
4.082000	0.283818
4.084000	0.173648
4.086000	0.056764
4.088000	-0.053712
4.090000	-0.147402
4.092000	-0.213016
4.094000	-0.245670
4.096000	-0.246891
4.098000	-0.222782
4.100000	-0.183719
4.102000	-0.140078
4.104000	-0.099489
4.106000	-0.067140
4.108000	-0.045167
4.110000	-0.033875
4.112000	-0.031434
4.114000	-0.033875
4.116000	-0.039673
4.118000	-0.046693
4.120000	-0.052796
4.122000	-0.058595
4.124000	-0.062867
4.126000	-0.064698
4.128000	-0.065919
4.130000	-0.064393
4.132000	-0.062257
4.134000	-0.058900
4.136000	-0.054627
4.138000	-0.050050
4.140000	-0.044862
4.142000	-0.039979
4.144000	-0.034485
4.146000	-0.029297
4.148000	-0.025330
4.150000	-0.022583
4.152000	-0.020752
4.154000	-0.020142
4.156000	-0.019532
4.158000	-0.018921
4.160000	-0.018921
4.162000	-0.018311
4.164000	-0.017700
4.166000	-0.016785
4.168000	-0.014954
4.170000	-0.013428
4.172000	-0.011597
4.174000	-0.009766
4.176000	-0.008240
4.178000	-0.007324
4.180000	-0.005798
4.182000	-0.003967
4.184000	-0.001221
4.186000	0.001526
4.188000	0.004578
4.190000	0.007630
4.192000	0.010987
4.194000	0.013428
4.196000	0.014649
4.198000	0.014649
4.200000	0.014343
4.202000	0.013123
4.204000	0.012512
4.206000	0.012207
4.208000	0.012207
4.210000	0.014038
4.212000	0.016175
4.214000	0.019837
4.216000	0.023499
4.218000	0.027466
4.220000	0.030518
4.222000	0.031739
4.224000	0.030518
4.226000	0.026856
4.228000	0.021668
4.230000	0.014038
4.232000	0.004578
4.234000	-0.005493
4.236000	-0.016175
4.238000	-0.026856
4.240000	-0.036011
4.242000	-0.043030
4.244000	-0.049439
4.246000	-0.053407
4.248000	-0.055848
4.250000	-0.056458
4.252000	-0.056153
4.254000	-0.054017
4.256000	-0.052186
4.258000	-0.050355
4.260000	-0.048524
4.262000	-0.046387
4.264000	-0.045777
4.266000	-0.045167
4.268000	-0.045472
4.270000	-0.045777
4.272000	-0.046082
4.274000	-0.046082
4.276000	-0.045777
4.278000	-0.044862
4.280000	-0.044862
4.282000	-0.044556
4.284000	-0.044251
4.286000	-0.045167
4.288000	-0.046693
4.290000	-0.049134
4.292000	-0.051575
4.294000	-0.053712
4.296000	-0.055238
4.298000	-0.055848
4.300000	-0.055848
4.302000	-0.054932
4.304000	-0.052796
4.306000	-0.050965
4.308000	-0.048524
4.310000	-0.046387
4.312000	-0.044251
4.314000	-0.042420
4.316000	-0.040589
4.318000	-0.039368
4.320000	-0.038148
4.322000	-0.037232
4.324000	-0.035401
4.326000	-0.035096
4.328000	-0.035401
4.330000	-0.036316
4.332000	-0.037232
4.334000	-0.038453
4.336000	-0.039979
4.338000	-0.041505
4.340000	-0.042115
4.342000	-0.042420
4.344000	-0.042115
4.346000	-0.041199
4.348000	-0.039979
4.350000	-0.039063
4.352000	-0.037537
4.354000	-0.036622
4.356000	-0.036316
4.358000	-0.036011
4.360000	-0.035401
4.362000	-0.034791
4.364000	-0.034180
4.366000	-0.034180
4.368000	-0.034180
4.370000	-0.034485
4.372000	-0.034791
4.374000	-0.034791
4.376000	-0.035401
4.378000	-0.036011
4.380000	-0.037537
4.382000	-0.039063
4.384000	-0.039979
4.386000	-0.040589
4.388000	-0.040589
4.390000	-0.039979
4.392000	-0.038758
4.394000	-0.037232
4.396000	-0.034791
4.398000	-0.032959
4.400000	-0.030823
4.402000	-0.029297
4.404000	-0.027771
4.406000	-0.027161
4.408000	-0.027466
4.410000	-0.028687
4.412000	-0.030823
4.414000	-0.033265
4.416000	-0.035706
4.418000	-0.038453
4.420000	-0.040284
4.422000	-0.042115
4.424000	-0.043641
4.426000	-0.044251
4.428000	-0.043946
4.430000	-0.043336
4.432000	-0.041810
4.434000	-0.040589
4.436000	-0.038758
4.438000	-0.036927
4.440000	-0.035401
4.442000	-0.033875
4.444000	-0.032654
4.446000	-0.031739
4.448000	-0.030213
4.450000	-0.029297
4.452000	-0.028687
4.454000	-0.028382
4.456000	-0.028382
4.458000	-0.028687
4.460000	-0.029297
4.462000	-0.029297
4.464000	-0.029603
4.466000	-0.030213
4.468000	-0.030823
4.470000	-0.030823
4.472000	-0.030213
4.474000	-0.029603
4.476000	-0.028992
4.478000	-0.028077
4.480000	-0.027466
4.482000	-0.027771
4.484000	-0.028077
4.486000	-0.028687
4.488000	-0.030518
4.490000	-0.032959
4.492000	-0.033875
4.494000	-0.035401
4.496000	-0.035706
4.498000	-0.036316
4.500000	-0.036316
4.502000	-0.036316
4.504000	-0.034485
4.506000	-0.034180
4.508000	-0.032654
4.510000	-0.030518
4.512000	-0.027466
4.514000	-0.023194
4.516000	-0.018616
4.518000	-0.014038
4.520000	-0.009155
4.522000	-0.003357
4.524000	0.002136
4.526000	0.006409
4.528000	0.010071
4.530000	0.012512
4.532000	0.013733
4.534000	0.014343
4.536000	0.013123
4.538000	0.010071
4.540000	0.003967
4.542000	-0.002136
4.544000	-0.010071
4.546000	-0.018921
4.548000	-0.027771
4.550000	-0.035401
4.552000	-0.043030
4.554000	-0.048524
4.556000	-0.052186
4.558000	-0.053712
4.560000	-0.053712
4.562000	-0.053101
4.564000	-0.052186
4.566000	-0.051270
4.568000	-0.050660
4.570000	-0.049744
4.572000	-0.048829
4.574000	-0.048524
4.576000	-0.049134
4.578000	-0.049439
4.580000	-0.050050
4.582000	-0.051270
4.584000	-0.052796
4.586000	-0.054017
4.588000	-0.055238
4.590000	-0.057374
4.592000	-0.061341
4.594000	-0.065309
4.596000	-0.064088
4.598000	-0.056153
4.600000	-0.036316
4.602000	-0.004883
4.604000	0.038148
4.606000	0.093996
4.608000	0.160525
4.610000	0.234073
4.612000	0.307927
4.614000	0.371710
4.616000	0.412299
4.618000	0.419318
4.620000	0.389410
4.622000	0.324407
4.624000	0.234379
4.626000	0.128786
4.628000	0.019532
4.630000	-0.083009
4.632000	-0.166323
4.634000	-0.221256
4.636000	-0.244450
4.638000	-0.238041
4.640000	-0.208743
4.642000	-0.167544
4.644000	-0.123293
4.646000	-0.083925
4.648000	-0.054322
4.650000	-0.036011
4.652000	-0.028992
4.654000	-0.028992
4.656000	-0.035096
4.658000	-0.043641
4.660000	-0.052796
4.662000	-0.060731
4.664000	-0.065919
4.666000	-0.068360
4.668000	-0.067445
4.670000	-0.065003
4.672000	-0.061646
4.674000	-0.057069
4.676000	-0.053101
4.678000	-0.048829
4.680000	-0.045777
4.682000	-0.043336
4.684000	-0.042115
4.686000	-0.042420
4.688000	-0.042420
4.690000	-0.042420
4.692000	-0.043336
4.694000	-0.043946
4.696000	-0.044862
4.698000	-0.045472
4.700000	-0.045167
4.702000	-0.044862
4.704000	-0.043946
4.706000	-0.042420
4.708000	-0.040894
4.710000	-0.038758
4.712000	-0.036011
4.714000	-0.032654
4.716000	-0.029908
4.718000	-0.027161
4.720000	-0.024414
4.722000	-0.021668
4.724000	-0.020752
4.726000	-0.019532
4.728000	-0.019532
4.730000	-0.018616
4.732000	-0.018311
4.734000	-0.017395
4.736000	-0.016480
4.738000	-0.014649
4.740000	-0.013428
4.742000	-0.011292
4.744000	-0.009155
4.746000	-0.007935
4.748000	-0.006714
4.750000	-0.004883
4.752000	-0.003052
4.754000	-0.000916
4.756000	0.000916
4.758000	0.003967
4.760000	0.007324
4.762000	0.010681
4.764000	0.013123
4.766000	0.012818
4.768000	0.011902
4.770000	0.008240
4.772000	0.004273
4.774000	-0.001526
4.776000	-0.008850
4.778000	-0.017090
4.780000	-0.025940
4.782000	-0.034485
4.784000	-0.042725
4.786000	-0.050965
4.788000	-0.057374
4.790000	-0.064393
4.792000	-0.069581
4.794000	-0.073243
4.796000	-0.075990
4.798000	-0.077821
4.800000	-0.078126
4.802000	-0.077211
4.804000	-0.075074
4.806000	-0.073243
4.808000	-0.070497
4.810000	-0.068055
4.812000	-0.066224
4.814000	-0.064088
4.816000	-0.062257
4.818000	-0.061036
4.820000	-0.061341
4.822000	-0.061036
4.824000	-0.061036
4.826000	-0.060426
4.828000	-0.059815
4.830000	-0.058900
4.832000	-0.057679
4.834000	-0.056153
4.836000	-0.054627
4.838000	-0.052491
4.840000	-0.050660
4.842000	-0.048829
4.844000	-0.047608
4.846000	-0.046387
4.848000	-0.046693
4.850000	-0.046998
4.852000	-0.046998
4.854000	-0.047608
4.856000	-0.049134
4.858000	-0.050965
4.860000	-0.052491
4.862000	-0.054017
4.864000	-0.055848
4.866000	-0.056764
4.868000	-0.057374
4.870000	-0.057679
4.872000	-0.057069
4.874000	-0.055543
4.876000	-0.052796
4.878000	-0.050050
4.880000	-0.046693
4.882000	-0.043946
4.884000	-0.042115
4.886000	-0.040894
4.888000	-0.040894
4.890000	-0.040589
4.892000	-0.041199
4.894000	-0.041810
4.896000	-0.043030
4.898000	-0.044251
4.900000	-0.045472
4.902000	-0.046082
4.904000	-0.046693
4.906000	-0.046998
4.908000	-0.048219
4.910000	-0.049439
4.912000	-0.049439
4.914000	-0.049744
4.916000	-0.050050
4.918000	-0.050965
4.920000	-0.051270
4.922000	-0.051881
4.924000	-0.051575
4.926000	-0.052186
4.928000	-0.051881
4.930000	-0.051881
4.932000	-0.051881
4.934000	-0.052186
4.936000	-0.052796
4.938000	-0.053712
4.940000	-0.054322
4.942000	-0.056153
4.944000	-0.057374
4.946000	-0.058595
4.948000	-0.059205
4.950000	-0.060426
4.952000	-0.061036
4.954000	-0.060426
4.956000	-0.059510
4.958000	-0.058595
4.960000	-0.056764
4.962000	-0.054932
4.964000	-0.053101
4.966000	-0.052186
4.968000	-0.050660
4.970000	-0.050050
4.972000	-0.048829
4.974000	-0.047608
4.976000	-0.047303
4.978000	-0.047913
4.980000	-0.047913
4.982000	-0.048219
4.984000	-0.049439
4.986000	-0.050660
4.988000	-0.051575
4.990000	-0.052186
4.992000	-0.052186
4.994000	-0.053101
4.996000	-0.053712
4.998000	-0.053407
5.000000	-0.050965
5.002000	-0.048524
5.004000	-0.045167
5.006000	-0.041810
5.008000	-0.039063
5.010000	-0.036927
5.012000	-0.034485
5.014000	-0.032654
5.016000	-0.031434
5.018000	-0.028992
5.020000	-0.026246
5.022000	-0.023804
5.024000	-0.021057
5.026000	-0.018921
5.028000	-0.017090
5.030000	-0.016480
5.032000	-0.018311
5.034000	-0.021363
5.036000	-0.026246
5.038000	-0.032044
5.040000	-0.037537
5.042000	-0.043030
5.044000	-0.047303
5.046000	-0.049134
5.048000	-0.050050
5.050000	-0.049134
5.052000	-0.047913
5.054000	-0.046082
5.056000	-0.045167
5.058000	-0.044862
5.060000	-0.045472
5.062000	-0.046998
5.064000	-0.049439
5.066000	-0.052796
5.068000	-0.056153
5.070000	-0.059815
5.072000	-0.061646
5.074000	-0.062257
5.076000	-0.061646
5.078000	-0.061036
5.080000	-0.061036
5.082000	-0.061341
5.084000	-0.058289
5.086000	-0.048829
5.088000	-0.029297
5.090000	0.001526
5.092000	0.044862
5.094000	0.101625
5.096000	0.171817
5.098000	0.251469
5.100000	0.334173
5.102000	0.409247
5.104000	0.463569
5.106000	0.483406
5.108000	0.463569
5.110000	0.405280
5.112000	0.315862
5.114000	0.205997
5.116000	0.085756
5.118000	-0.029603
5.120000	-0.129702
5.122000	-0.202029
5.124000	-0.241093
5.126000	-0.247501
5.128000	-0.227665
5.130000	-0.191959
5.132000	-0.149844
5.134000	-0.110475
5.136000	-0.078126
5.138000	-0.055543
5.140000	-0.042725
5.142000	-0.038758
5.144000	-0.040589
5.146000	-0.044556
5.148000	-0.050355
5.150000	-0.055543
5.152000	-0.060121
5.154000	-0.061646
5.156000	-0.062257
5.158000	-0.061036
5.160000	-0.058900
5.162000	-0.057374
5.164000	-0.054932
5.166000	-0.054017
5.168000	-0.053101
5.170000	-0.052796
5.172000	-0.052796
5.174000	-0.052491
5.176000	-0.052491
5.178000	-0.052491
5.180000	-0.050355
5.182000	-0.048829
5.184000	-0.046387
5.186000	-0.043946
5.188000	-0.041810
5.190000	-0.040284
5.192000	-0.038758
5.194000	-0.037842
5.196000	-0.037232
5.198000	-0.036622
5.200000	-0.035706
5.202000	-0.034485
5.204000	-0.033265
5.206000	-0.031739
5.208000	-0.027771
5.210000	-0.025025
5.212000	-0.021057
5.214000	-0.017395
5.216000	-0.013428
5.218000	-0.009155
5.220000	-0.006104
5.222000	-0.003662
5.224000	-0.002441
5.226000	-0.001831
5.228000	-0.002441
5.230000	-0.003357
5.232000	-0.005188
5.234000	-0.007324
5.236000	-0.009155
5.238000	-0.009766
5.240000	-0.009461
5.242000	-0.007630
5.244000	-0.004578
5.246000	0.000000
5.248000	0.003967
5.250000	0.007935
5.252000	0.010987
5.254000	0.011902
5.256000	0.009766
5.258000	0.005188
5.260000	-0.001831
5.262000	-0.011292
5.264000	-0.021363
5.266000	-0.031739
5.268000	-0.041810
5.270000	-0.051270
5.272000	-0.058900
5.274000	-0.064088
5.276000	-0.067140
5.278000	-0.069886
5.280000	-0.071412
5.282000	-0.071412
5.284000	-0.071717
5.286000	-0.071717
5.288000	-0.071412
5.290000	-0.070192
5.292000	-0.069276
5.294000	-0.067750
5.296000	-0.065919
5.298000	-0.063783
5.300000	-0.061341
5.302000	-0.060121
5.304000	-0.058595
5.306000	-0.057374
5.308000	-0.057374
5.310000	-0.057984
5.312000	-0.059510
5.314000	-0.061341
5.316000	-0.062562
5.318000	-0.063478
5.320000	-0.064088
5.322000	-0.063478
5.324000	-0.062867
5.326000	-0.062257
5.328000	-0.060731
5.330000	-0.059815
5.332000	-0.057984
5.334000	-0.056764
5.336000	-0.055238
5.338000	-0.054932
5.340000	-0.054627
5.342000	-0.054627
5.344000	-0.055543
5.346000	-0.057374
5.348000	-0.058595
5.350000	-0.060426
5.352000	-0.062257
5.354000	-0.064393
5.356000	-0.066224
5.358000	-0.068360
5.360000	-0.070497
5.362000	-0.072633
5.364000	-0.074159
5.366000	-0.075380
5.368000	-0.076295
5.370000	-0.075990
5.372000	-0.075380
5.374000	-0.073243
5.376000	-0.071107
5.378000	-0.068360
5.380000	-0.065614
5.382000	-0.063172
5.384000	-0.061952
5.386000	-0.061341
5.388000	-0.061952
5.390000	-0.063783
5.392000	-0.065919
5.394000	-0.067750
5.396000	-0.068971
5.398000	-0.069886
5.400000	-0.069581
5.402000	-0.068055
5.404000	-0.066224
5.406000	-0.064393
5.408000	-0.061952
5.410000	-0.061036
5.412000	-0.061036
5.414000	-0.061036
5.416000	-0.063172
5.418000	-0.065919
5.420000	-0.069581
5.422000	-0.072633
5.424000	-0.075074
5.426000	-0.077211
5.428000	-0.077516
5.430000	-0.077821
5.432000	-0.075990
5.434000	-0.073243
5.436000	-0.070192
5.438000	-0.067445
5.440000	-0.064698
5.442000	-0.063478
5.444000	-0.062257
5.446000	-0.061952
5.448000	-0.062562
5.450000	-0.062867
5.452000	-0.062867
5.454000	-0.062867
5.456000	-0.061646
5.458000	-0.060731
5.460000	-0.060121
5.462000	-0.059510
5.464000	-0.059510
5.466000	-0.059510
5.468000	-0.060426
5.470000	-0.062257
5.472000	-0.064698
5.474000	-0.065614
5.476000	-0.064698
5.478000	-0.062867
5.480000	-0.058900
5.482000	-0.053101
5.484000	-0.046082
5.486000	-0.037842
5.488000	-0.030823
5.490000	-0.024109
5.492000	-0.018006
5.494000	-0.013123
5.496000	-0.008850
5.498000	-0.006409
5.500000	-0.005493
5.502000	-0.005188
5.504000	-0.006714
5.506000	-0.009461
5.508000	-0.013123
5.510000	-0.017700
5.512000	-0.023499
5.514000	-0.029908
5.516000	-0.036316
5.518000	-0.042420
5.520000	-0.046693
5.522000	-0.050355
5.524000	-0.053712
5.526000	-0.055543
5.528000	-0.057679
5.530000	-0.059510
5.532000	-0.060426
5.534000	-0.062562
5.536000	-0.063783
5.538000	-0.065919
5.540000	-0.068971
5.542000	-0.071412
5.544000	-0.073243
5.546000	-0.074769
5.548000	-0.075990
5.550000	-0.076600
5.552000	-0.075685
5.554000	-0.074769
5.556000	-0.073243
5.558000	-0.071412
5.560000	-0.062562
5.562000	-0.045167
5.564000	-0.015259
5.566000	0.026551
5.568000	0.080873
5.570000	0.149538
5.572000	0.231022
5.574000	0.320134
5.576000	0.408026
5.578000	0.481880
5.580000	0.527962
5.582000	0.534066
5.584000	0.497444
5.586000	0.422675
5.588000	0.317082
5.590000	0.191653
5.592000	0.060426
5.594000	-0.062257
5.596000	-0.163577
5.598000	-0.231937
5.600000	-0.264591
5.602000	-0.263676
5.604000	-0.237736
5.606000	-0.198062
5.608000	-0.153811
5.610000	-0.114137
5.612000	-0.083009
5.614000	-0.063172
5.616000	-0.052796
5.618000	-0.050355
5.620000	-0.053407
5.622000	-0.059205
5.624000	-0.065614
5.626000	-0.071717
5.628000	-0.076905
5.630000	-0.080568
5.632000	-0.081178
5.634000	-0.081483
5.636000	-0.079652
5.638000	-0.076905
5.640000	-0.073243
5.642000	-0.069581
5.644000	-0.064393
5.646000	-0.059510
5.648000	-0.055543
5.650000	-0.051881
5.652000	-0.049439
5.654000	-0.046693
5.656000	-0.044862
5.658000	-0.043336
5.660000	-0.041810
5.662000	-0.040894
5.664000	-0.039368
5.666000	-0.037842
5.668000	-0.036622
5.670000	-0.035401
5.672000	-0.034180
5.674000	-0.033265
5.676000	-0.031739
5.678000	-0.031739
5.680000	-0.030518
5.682000	-0.028382
5.684000	-0.026551
5.686000	-0.024414
5.688000	-0.021363
5.690000	-0.018311
5.692000	-0.014954
5.694000	-0.011597
5.696000	-0.008850
5.698000	-0.007630
5.700000	-0.007324
5.702000	-0.007935
5.704000	-0.009155
5.706000	-0.009766
5.708000	-0.010071
5.710000	-0.009766
5.712000	-0.007935
5.714000	-0.004273
5.716000	0.000610
5.718000	0.007019
5.720000	0.014038
5.722000	0.021363
5.724000	0.028077
5.726000	0.032349
5.728000	0.034791
5.730000	0.035096
5.732000	0.032349
5.734000	0.027771
5.736000	0.020447
5.738000	0.010987
5.740000	0.000916
5.742000	-0.010071
5.744000	-0.021057
5.746000	-0.031739
5.748000	-0.041505
5.750000	-0.048829
5.752000	-0.054932
5.754000	-0.058289
5.756000	-0.060426
5.758000	-0.061036
5.760000	-0.060426
5.762000	-0.058900
5.764000	-0.057069
5.766000	-0.055238
5.768000	-0.054627
5.770000	-0.054932
5.772000	-0.054322
5.774000	-0.054017
5.776000	-0.053712
5.778000	-0.053101
5.780000	-0.052491
5.782000	-0.052491
5.784000	-0.052491
5.786000	-0.051881
5.788000	-0.051881
5.790000	-0.052186
5.792000	-0.052796
5.794000	-0.052491
5.796000	-0.053407
5.798000	-0.052796
5.800000	-0.051575
5.802000	-0.050355
5.804000	-0.048219
5.806000	-0.046693
5.808000	-0.044862
5.810000	-0.043336
5.812000	-0.041505
5.814000	-0.039368
5.816000	-0.038148
5.818000	-0.037842
5.820000	-0.037537
5.822000	-0.037232
5.824000	-0.036927
5.826000	-0.037232
5.828000	-0.037537
5.830000	-0.038758
5.832000	-0.039673
5.834000	-0.040589
5.836000	-0.042115
5.838000	-0.043336
5.840000	-0.043641
5.842000	-0.043946
5.844000	-0.043641
5.846000	-0.043336
5.848000	-0.041505
5.850000	-0.038453
5.852000	-0.035706
5.854000	-0.032654
5.856000	-0.030823
5.858000	-0.028687
5.860000	-0.027466
5.862000	-0.027771
5.864000	-0.028992
5.866000	-0.030518
5.868000	-0.032044
5.870000	-0.032654
5.872000	-0.033265
5.874000	-0.033265
5.876000	-0.032349
5.878000	-0.031434
5.880000	-0.030213
5.882000	-0.028992
5.884000	-0.027771
5.886000	-0.026551
5.888000	-0.025635
5.890000	-0.025025
5.892000	-0.025330
5.894000	-0.025025
5.896000	-0.024720
5.898000	-0.024414
5.900000	-0.024414
5.902000	-0.025635
5.904000	-0.027771
5.906000	-0.028687
5.908000	-0.029908
5.910000	-0.030823
5.912000	-0.032349
5.914000	-0.033265
5.916000	-0.034180
5.918000	-0.034180
5.920000	-0.034180
5.922000	-0.033265
5.924000	-0.032044
5.926000	-0.029908
5.928000	-0.026246
5.930000	-0.021973
5.932000	-0.018616
5.934000	-0.014649
5.936000	-0.011292
5.938000	-0.008545
5.940000	-0.006104
5.942000	-0.003357
5.944000	-0.001831
5.946000	0.000000
5.948000	0.000916
5.950000	0.001831
5.952000	0.002747
5.954000	0.002747
5.956000	0.000916
5.958000	-0.002136
5.960000	-0.007630
5.962000	-0.014649
5.964000	-0.021363
5.966000	-0.027161
5.968000	-0.032044
5.970000	-0.036316
5.972000	-0.038453
5.974000	-0.039979
5.976000	-0.039673
5.978000	-0.038453
5.980000	-0.036622
5.982000	-0.035706
5.984000	-0.034791
5.986000	-0.034791
5.988000	-0.034791
5.990000	-0.035706
5.992000	-0.036622
5.994000	-0.037537
5.996000	-0.039063
5.998000	-0.041199
6.000000	-0.043336
6.002000	-0.047303
6.004000	-0.049439
6.006000	-0.046693
6.008000	-0.033265
6.010000	-0.007935
6.012000	0.030823
6.014000	0.085145
6.016000	0.155947
6.018000	0.240482
6.020000	0.333562
6.022000	0.426947
6.024000	0.505989
6.026000	0.555734
6.028000	0.565805
6.030000	0.532235
6.032000	0.458076
6.034000	0.351568
6.036000	0.225834
6.038000	0.092470
6.040000	-0.033265
6.042000	-0.137331
6.044000	-0.209354
6.046000	-0.244755
6.048000	-0.246281
6.050000	-0.222782
6.052000	-0.183719
6.054000	-0.140383
6.056000	-0.100710
6.058000	-0.069581
6.060000	-0.048829
6.062000	-0.038758
6.064000	-0.036316
6.066000	-0.040894
6.068000	-0.046387
6.070000	-0.053712
6.072000	-0.060121
6.074000	-0.063783
6.076000	-0.065614
6.078000	-0.065003
6.080000	-0.062867
6.082000	-0.059510
6.084000	-0.055543
6.086000	-0.052186
6.088000	-0.047913
6.090000	-0.044862
6.092000	-0.042115
6.094000	-0.039368
6.096000	-0.037842
6.098000	-0.036316
6.100000	-0.034791
6.102000	-0.033875
6.104000	-0.033265
6.106000	-0.032349
6.108000	-0.031739
6.110000	-0.030823
6.112000	-0.029908
6.114000	-0.028382
6.116000	-0.027161
6.118000	-0.025330
6.120000	-0.023499
6.122000	-0.021363
6.124000	-0.020142
6.126000	-0.018311
6.128000	-0.015564
6.130000	-0.013123
6.132000	-0.009766
6.134000	-0.006104
6.136000	-0.002441
6.138000	0.000610
6.140000	0.003357
6.142000	0.006714
6.144000	0.008850
6.146000	0.010376
6.148000	0.010681
6.150000	0.011902
6.152000	0.012512
6.154000	0.013123
6.156000	0.014649
6.158000	0.017090
6.160000	0.020752
6.162000	0.025025
6.164000	0.030823
6.166000	0.036927
6.168000	0.043030
6.170000	0.047913
6.172000	0.050355
6.174000	0.051270
6.176000	0.047913
6.178000	0.042115
6.180000	0.033570
6.182000	0.022889
6.184000	0.010681
6.186000	-0.001831
6.188000	-0.013428
6.190000	-0.024414
6.192000	-0.032654
6.194000	-0.039368
6.196000	-0.043641
6.198000	-0.046387
6.200000	-0.046998
6.202000	-0.046387
6.204000	-0.044862
6.206000	-0.043336
6.208000	-0.041810
6.210000	-0.039979
6.212000	-0.037842
6.214000	-0.036011
6.216000	-0.035096
6.218000	-0.034180
6.220000	-0.034485
6.222000	-0.035401
6.224000	-0.036316
6.226000	-0.036927
6.228000	-0.038453
6.230000	-0.040589
6.232000	-0.043336
6.234000	-0.045777
6.236000	-0.046998
6.238000	-0.047913
6.240000	-0.047913
6.242000	-0.048219
6.244000	-0.048219
6.246000	-0.046998
6.248000	-0.045472
6.250000	-0.043336
6.252000	-0.041199
6.254000	-0.038758
6.256000	-0.035401
6.258000	-0.032654
6.260000	-0.030213
6.262000	-0.028992
6.264000	-0.028077
6.266000	-0.028077
6.268000	-0.028992
6.270000	-0.029603
6.272000	-0.029908
6.274000	-0.029908
6.276000	-0.028992
6.278000	-0.028077
6.280000	-0.026551
6.282000	-0.023804
6.284000	-0.021973
6.286000	-0.020752
6.288000	-0.020752
6.290000	-0.020752
6.292000	-0.021668
6.294000	-0.021973
6.296000	-0.022583
6.298000	-0.023499
6.300000	-0.023499
6.302000	-0.023194
6.304000	-0.022278
6.306000	-0.022278
6.308000	-0.022583
6.310000	-0.021973
6.312000	-0.022583
6.314000	-0.022889
6.316000	-0.022583
6.318000	-0.022583
6.320000	-0.022889
6.322000	-0.023499
6.324000	-0.023194
6.326000	-0.022583
6.328000	-0.022889
6.330000	-0.022889
6.332000	-0.022583
6.334000	-0.022278
6.336000	-0.021057
6.338000	-0.020447
6.340000	-0.019226
6.342000	-0.018616
6.344000	-0.018311
6.346000	-0.017700
6.348000	-0.018006
6.350000	-0.018616
6.352000	-0.020142
6.354000	-0.021668
6.356000	-0.023194
6.358000	-0.024109
6.360000	-0.024720
6.362000	-0.024720
6.364000	-0.024109
6.366000	-0.024109
6.368000	-0.023194
6.370000	-0.021668
6.372000	-0.021057
6.374000	-0.020142
6.376000	-0.021057
6.378000	-0.021057
6.380000	-0.021668
6.382000	-0.021668
6.384000	-0.022278
6.386000	-0.023194
6.388000	-0.022889
6.390000	-0.021668
6.392000	-0.019226
6.394000	-0.015869
6.396000	-0.012512
6.398000	-0.007630
6.400000	-0.003662
6.402000	0.000610
6.404000	0.004273
6.406000	0.006409
6.408000	0.006409
6.410000	0.004273
6.412000	0.000916
6.414000	-0.002441
6.416000	-0.006714
6.418000	-0.010987
6.420000	-0.015259
6.422000	-0.017395
6.424000	-0.019226
6.426000	-0.020447
6.428000	-0.020447
6.430000	-0.021668
6.432000	-0.023499
6.434000	-0.025635
6.436000	-0.028687
6.438000	-0.031128
6.440000	-0.033875
6.442000	-0.034485
6.444000	-0.035401
6.446000	-0.034791
6.448000	-0.032959
6.450000	-0.030518
6.452000	-0.029297
6.454000	-0.028382
6.456000	-0.025330
6.458000	-0.016480
6.460000	0.003662
6.462000	0.036011
6.464000	0.081788
6.466000	0.141909
6.468000	0.216678
6.470000	0.303349
6.472000	0.394293
6.474000	0.478828
6.476000	0.542000
6.478000	0.570993
6.480000	0.557259
6.482000	0.500801
6.484000	0.408331
6.486000	0.289921
6.488000	0.158999
6.490000	0.028382
6.492000	-0.087282
6.494000	-0.174258
6.496000	-0.226139
6.498000	-0.241703
6.500000	-0.227054
6.502000	-0.192874
6.504000	-0.149844
6.506000	-0.107424
6.508000	-0.072633
6.510000	-0.047913
6.512000	-0.034180
6.514000	-0.030213
6.516000	-0.032349
6.518000	-0.037842
6.520000	-0.044251
6.522000	-0.049744
6.524000	-0.052491
6.526000	-0.053101
6.528000	-0.052186
6.530000	-0.050050
6.532000	-0.047303
6.534000	-0.045472
6.536000	-0.043946
6.538000	-0.042725
6.540000	-0.042725
6.542000	-0.042725
6.544000	-0.042725
6.546000	-0.042420
6.548000	-0.042725
6.550000	-0.043030
6.552000	-0.042725
6.554000	-0.041810
6.556000	-0.041199
6.558000	-0.040284
6.560000	-0.039673
6.562000	-0.038148
6.564000	-0.036011
6.566000	-0.033570
6.568000	-0.029908
6.570000	-0.025940
6.572000	-0.022278
6.574000	-0.018311
6.576000	-0.014649
6.578000	-0.010987
6.580000	-0.007630
6.582000	-0.004883
6.584000	-0.003052
6.586000	-0.001526
6.588000	-0.000305
6.590000	0.000916
6.592000	0.002136
6.594000	0.003357
6.596000	0.004883
6.598000	0.007019
6.600000	0.009461
6.602000	0.010376
6.604000	0.011597
6.606000	0.012512
6.608000	0.013428
6.610000	0.014649
6.612000	0.016785
6.614000	0.019837
6.616000	0.024414
6.618000	0.030213
6.620000	0.035401
6.622000	0.039979
6.624000	0.042420
6.626000	0.041810
6.628000	0.038758
6.630000	0.032654
6.632000	0.023194
6.634000	0.011597
6.636000	-0.000610
6.638000	-0.012818
6.640000	-0.023499
6.642000	-0.032959
6.644000	-0.039368
6.646000	-0.044556
6.648000	-0.045777
6.650000	-0.046998
6.652000	-0.047608
6.654000	-0.046693
6.656000	-0.045777
6.658000	-0.044862
6.660000	-0.044556
6.662000	-0.045167
6.664000	-0.046693
6.666000	-0.048219
6.668000	-0.050660
6.670000	-0.052491
6.672000	-0.055238
6.674000	-0.056764
6.676000	-0.056764
6.678000	-0.057069
6.680000	-0.055848
6.682000	-0.053712
6.684000	-0.051270
6.686000	-0.047913
6.688000	-0.044251
6.690000	-0.041505
6.692000	-0.039368
6.694000	-0.038148
6.696000	-0.037537
6.698000	-0.037537
6.700000	-0.038453
6.702000	-0.039368
6.704000	-0.040589
6.706000	-0.041505
6.708000	-0.042725
6.710000	-0.043336
6.712000	-0.042420
6.714000	-0.041810
6.716000	-0.039979
6.718000	-0.038148
6.720000	-0.035401
6.722000	-0.033265
6.724000	-0.030823
6.726000	-0.027771
6.728000	-0.025635
6.730000	-0.025025
6.732000	-0.024414
6.734000	-0.025025
6.736000	-0.025940
6.738000	-0.027161
6.740000	-0.028687
6.742000	-0.030518
6.744000	-0.031739
6.746000	-0.032654
6.748000	-0.032044
6.750000	-0.030823
6.752000	-0.028992
6.754000	-0.027161
6.756000	-0.025025
6.758000	-0.023499
6.760000	-0.022889
6.762000	-0.022583
6.764000	-0.023804
6.766000	-0.025635
6.768000	-0.027466
6.770000	-0.030518
6.772000	-0.032349
6.774000	-0.034485
6.776000	-0.034791
6.778000	-0.035401
6.780000	-0.034791
6.782000	-0.034180
6.784000	-0.032959
6.786000	-0.031739
6.788000	-0.029908
6.790000	-0.027771
6.792000	-0.026856
6.794000	-0.025330
6.796000	-0.023499
6.798000	-0.021973
6.800000	-0.020752
6.802000	-0.019532
6.804000	-0.018616
6.806000	-0.017700
6.808000	-0.016785
6.810000	-0.017395
6.812000	-0.018311
6.814000	-0.020447
6.816000	-0.023499
6.818000	-0.026246
6.820000	-0.028992
6.822000	-0.031434
6.824000	-0.033265
6.826000	-0.033875
6.828000	-0.033265
6.830000	-0.030823
6.832000	-0.026856
6.834000	-0.023804
6.836000	-0.020142
6.838000	-0.017395
6.840000	-0.016175
6.842000	-0.016175
6.844000	-0.017700
6.846000	-0.020142
6.848000	-0.021973
6.850000	-0.024109
6.852000	-0.025635
6.854000	-0.026856
6.856000	-0.028687
6.858000	-0.028382
6.860000	-0.027771
6.862000	-0.026856
6.864000	-0.024414
6.866000	-0.022278
6.868000	-0.018921
6.870000	-0.014343
6.872000	-0.010071
6.874000	-0.006104
6.876000	-0.002136
6.878000	0.000000
6.880000	0.001526
6.882000	0.001526
6.884000	-0.000916
6.886000	-0.005798
6.888000	-0.011902
6.890000	-0.017090
6.892000	-0.023194
6.894000	-0.028077
6.896000	-0.032959
6.898000	-0.036316
6.900000	-0.038453
6.902000	-0.039063
6.904000	-0.039368
6.906000	-0.037842
6.908000	-0.036622
6.910000	-0.035096
6.912000	-0.033875
6.914000	-0.032654
6.916000	-0.031739
6.918000	-0.031739
6.920000	-0.031434
6.922000	-0.032044
6.924000	-0.034485
6.926000	-0.037232
6.928000	-0.036011
6.930000	-0.025940
6.932000	-0.003357
6.934000	0.032959
6.936000	0.083925
6.938000	0.148623
6.940000	0.227359
6.942000	0.315557
6.944000	0.403754
6.946000	0.480659
6.948000	0.531319
6.950000	0.543221
6.952000	0.512093
6.954000	0.439765
6.956000	0.336614
6.958000	0.213016
6.960000	0.082704
6.962000	-0.040589
6.964000	-0.142824
6.966000	-0.214542
6.968000	-0.250248
6.970000	-0.251469
6.972000	-0.227054
6.974000	-0.187381
6.976000	-0.144045
6.978000	-0.104982
6.980000	-0.075380
6.982000	-0.056458
6.984000	-0.047913
6.986000	-0.046998
6.988000	-0.050965
6.990000	-0.056764
6.992000	-0.062257
6.994000	-0.066529
6.996000	-0.068971
6.998000	-0.068971
7.000000	-0.067750
7.002000	-0.065919
7.004000	-0.062867
7.006000	-0.060426
7.008000	-0.057984
7.010000	-0.055543
7.012000	-0.053101
7.014000	-0.051270
7.016000	-0.049134
7.018000	-0.047303
7.020000	-0.046387
7.022000	-0.043946
7.024000	-0.042115
7.026000	-0.040894
7.028000	-0.038453
7.030000	-0.036622
7.032000	-0.034791
7.034000	-0.033875
7.036000	-0.033875
7.038000	-0.034485
7.040000	-0.034791
7.042000	-0.035401
7.044000	-0.035401
7.046000	-0.034791
7.048000	-0.033875
7.050000	-0.031434
7.052000	-0.028382
7.054000	-0.023499
7.056000	-0.019532
7.058000	-0.014649
7.060000	-0.009766
7.062000	-0.005798
7.064000	-0.002441
7.066000	0.000610
7.068000	0.002441
7.070000	0.002747
7.072000	0.002747
7.074000	0.002747
7.076000	0.001831
7.078000	0.001831
7.080000	0.003052
7.082000	0.004883
7.084000	0.008240
7.086000	0.012818
7.088000	0.018311
7.090000	0.024109
7.092000	0.029603
7.094000	0.033265
7.096000	0.033875
7.098000	0.032349
7.100000	0.027771
7.102000	0.019837
7.104000	0.009155
7.106000	-0.003052
7.108000	-0.016175
7.110000	-0.029908
7.112000	-0.042725
7.114000	-0.053101
7.116000	-0.061952
7.118000	-0.068055
7.120000	-0.070802
7.122000	-0.071412
7.124000	-0.070802
7.126000	-0.068360
7.128000	-0.065919
7.130000	-0.064088
7.132000	-0.062257
7.134000	-0.061341
7.136000	-0.061341
7.138000	-0.061952
7.140000	-0.063783
7.142000	-0.065614
7.144000	-0.067445
7.146000	-0.069276
7.148000	-0.071107
7.150000	-0.072023
7.152000	-0.072023
7.154000	-0.071412
7.156000	-0.069886
7.158000	-0.068360
7.160000	-0.066529
7.162000	-0.064393
7.164000	-0.061341
7.166000	-0.058900
7.168000	-0.057679
7.170000	-0.055543
7.172000	-0.053712
7.174000	-0.052796
7.176000	-0.051270
7.178000	-0.049744
7.180000	-0.048829
7.182000	-0.046998
7.184000	-0.045472
7.186000	-0.043641
7.188000	-0.041505
7.190000	-0.039673
7.192000	-0.037842
7.194000	-0.036316
7.196000	-0.036316
7.198000	-0.036011
7.200000	-0.037232
7.202000	-0.038758
7.204000	-0.040894
7.206000	-0.043030
7.208000	-0.045777
7.210000	-0.047608
7.212000	-0.048219
7.214000	-0.047608
7.216000	-0.046387
7.218000	-0.044862
7.220000	-0.043030
7.222000	-0.040894
7.224000	-0.038758
7.226000	-0.036927
7.228000	-0.035706
7.230000	-0.035401
7.232000	-0.036011
7.234000	-0.036316
7.236000	-0.036622
7.238000	-0.036011
7.240000	-0.035706
7.242000	-0.034791
7.244000	-0.033570
7.246000	-0.031739
7.248000	-0.030823
7.250000	-0.029603
7.252000	-0.028077
7.254000	-0.027771
7.256000	-0.027466
7.258000	-0.028077
7.260000	-0.028992
7.262000	-0.030213
7.264000	-0.032654
7.266000	-0.033570
7.268000	-0.035401
7.270000	-0.036316
7.272000	-0.038148
7.274000	-0.039979
7.276000	-0.040284
7.278000	-0.041505
7.280000	-0.042115
7.282000	-0.042725
7.284000	-0.043336
7.286000	-0.042420
7.288000	-0.041505
7.290000	-0.039979
7.292000	-0.037842
7.294000	-0.035096
7.296000	-0.032654
7.298000	-0.030823
7.300000	-0.028382
7.302000	-0.027161
7.304000	-0.027161
7.306000	-0.028687
7.308000	-0.028992
7.310000	-0.030823
7.312000	-0.032959
7.314000	-0.034180
7.316000	-0.035096
7.318000	-0.035401
7.320000	-0.035096
7.322000	-0.034485
7.324000	-0.033265
7.326000	-0.031739
7.328000	-0.029908
7.330000	-0.027466
7.332000	-0.026246
7.334000	-0.025025
7.336000	-0.025330
7.338000	-0.025635
7.340000	-0.025940
7.342000	-0.026551
7.344000	-0.027466
7.346000	-0.028077
7.348000	-0.028382
7.350000	-0.028687
7.352000	-0.028382
7.354000	-0.028382
7.356000	-0.027466
7.358000	-0.027161
7.360000	-0.027161
7.362000	-0.027771
7.364000	-0.028382
7.366000	-0.028992
7.368000	-0.028382
7.370000	-0.027161
7.372000	-0.025635
7.374000	-0.025025
7.376000	-0.024414
7.378000	-0.023499
7.380000	-0.021668
7.382000	-0.020447
7.384000	-0.020142
7.386000	-0.021057
7.388000	-0.021668
7.390000	-0.022583
7.392000	-0.022889
7.394000	-0.023499
7.396000	-0.023804
7.398000	-0.024414
7.400000	-0.025025
7.402000	-0.025330
7.404000	-0.025330
7.406000	-0.023194
7.408000	-0.019532
7.410000	-0.014038
7.412000	-0.007324
7.414000	0.000000
7.416000	0.007019
7.418000	0.014649
7.420000	0.021668
7.422000	0.028077
7.424000	0.032959
7.426000	0.036011
7.428000	0.036622
7.430000	0.035706
7.432000	0.032959
7.434000	0.028077
7.436000	0.022278
7.438000	0.014343
7.440000	0.004883
7.442000	-0.004883
7.444000	-0.014649
7.446000	-0.023499
7.448000	-0.031739
7.450000	-0.037842
7.452000	-0.042420
7.454000	-0.045167
7.456000	-0.046387
7.458000	-0.046998
7.460000	-0.046387
7.462000	-0.045777
7.464000	-0.045167
7.466000	-0.044862
7.468000	-0.045167
7.470000	-0.046082
7.472000	-0.046387
7.474000	-0.047608
7.476000	-0.048219
7.478000	-0.048829
7.480000	-0.050050
7.482000	-0.050050
7.484000	-0.051270
7.486000	-0.052491
7.488000	-0.053712
7.490000	-0.051270
7.492000	-0.039673
7.494000	-0.015259
7.496000	0.021973
7.498000	0.074159
7.500000	0.141604
7.502000	0.222782
7.504000	0.312810
7.506000	0.402838
7.508000	0.479744
7.510000	0.528573
7.512000	0.537118
7.514000	0.502022
7.516000	0.426642
7.518000	0.319524
7.520000	0.194400
7.522000	0.062562
7.524000	-0.060731
7.526000	-0.161440
7.528000	-0.229496
7.530000	-0.261234
7.532000	-0.259403
7.534000	-0.232242
7.536000	-0.191043
7.538000	-0.146181
7.540000	-0.105898
7.542000	-0.075074
7.544000	-0.054932
7.546000	-0.045167
7.548000	-0.042420
7.550000	-0.045472
7.552000	-0.051270
7.554000	-0.057069
7.556000	-0.061646
7.558000	-0.064698
7.560000	-0.066835
7.562000	-0.068360
7.564000	-0.067750
7.566000	-0.065919
7.568000	-0.064088
7.570000	-0.061341
7.572000	-0.058900
7.574000	-0.056458
7.576000	-0.053712
7.578000	-0.050965
7.580000	-0.048219
7.582000	-0.045777
7.584000	-0.043641
7.586000	-0.041199
7.588000	-0.038758
7.590000	-0.036011
7.592000	-0.034180
7.594000	-0.032959
7.596000	-0.031739
7.598000	-0.030823
7.600000	-0.030213
7.602000	-0.029603
7.604000	-0.029603
7.606000	-0.029297
7.608000	-0.028992
7.610000	-0.027771
7.612000	-0.026246
7.614000	-0.024414
7.616000	-0.023499
7.618000	-0.021363
7.620000	-0.018921
7.622000	-0.015869
7.624000	-0.013123
7.626000	-0.010376
7.628000	-0.007630
7.630000	-0.004273
7.632000	-0.000916
7.634000	0.002136
7.636000	0.004883
7.638000	0.005798
7.640000	0.007324
7.642000	0.008240
7.644000	0.009461
7.646000	0.010681
7.648000	0.012818
7.650000	0.015869
7.652000	0.020142
7.654000	0.025025
7.656000	0.030518
7.658000	0.035096
7.660000	0.038148
7.662000	0.038453
7.664000	0.034791
7.666000	0.028382
7.668000	0.018311
7.670000	0.006104
7.672000	-0.008545
7.674000	-0.023194
7.676000	-0.036622
7.678000	-0.049134
7.680000	-0.058289
7.682000	-0.064088
7.684000	-0.067140
7.686000	-0.067750
7.688000	-0.066835
7.690000	-0.065003
7.692000	-0.062562
7.694000	-0.060731
7.696000	-0.058900
7.698000	-0.058289
7.700000	-0.057984
7.702000	-0.058595
7.704000	-0.058595
7.706000	-0.058289
7.708000	-0.056764
7.710000	-0.055543
7.712000	-0.054322
7.714000	-0.052491
7.716000	-0.051270
7.718000	-0.050050
7.720000	-0.050050
7.722000	-0.049439
7.724000	-0.048829
7.726000	-0.048219
7.728000	-0.047913
7.730000	-0.046693
7.732000	-0.045472
7.734000	-0.043336
7.736000	-0.042115
7.738000	-0.041810
7.740000	-0.041505
7.742000	-0.042725
7.744000	-0.043336
7.746000	-0.044556
7.748000	-0.045167
7.750000	-0.045167
7.752000	-0.045167
7.754000	-0.045167
7.756000	-0.043946
7.758000	-0.043336
7.760000	-0.042115
7.762000	-0.041810
7.764000	-0.042115
7.766000	-0.043030
7.768000	-0.044251
7.770000	-0.044251
7.772000	-0.044251
7.774000	-0.043946
7.776000	-0.043641
7.778000	-0.043030
7.780000	-0.041810
7.782000	-0.041199
7.784000	-0.039673
7.786000	-0.038758
7.788000	-0.037842
7.790000	-0.037232
7.792000	-0.035706
7.794000	-0.034485
7.796000	-0.032044
7.798000	-0.029603
7.800000	-0.028382
7.802000	-0.026856
7.804000	-0.026856
7.806000	-0.028077
7.808000	-0.029603
7.810000	-0.032654
7.812000	-0.035096
7.814000	-0.038148
7.816000	-0.041810
7.818000	-0.045167
7.820000	-0.046998
7.822000	-0.047913
7.824000	-0.047913
7.826000	-0.046387
7.828000	-0.045167
7.830000	-0.043030
7.832000	-0.040894
7.834000	-0.037842
7.836000	-0.034791
7.838000	-0.031739
7.840000	-0.030518
7.842000	-0.029908
7.844000	-0.030213
7.846000	-0.030213
7.848000	-0.031128
7.850000	-0.032654
7.852000	-0.034180
7.854000	-0.035096
7.856000	-0.035401
7.858000	-0.035401
7.860000	-0.035096
7.862000	-0.033265
7.864000	-0.031739
7.866000	-0.030823
7.868000	-0.029908
7.870000	-0.029297
7.872000	-0.030518
7.874000	-0.031128
7.876000	-0.031739
7.878000	-0.032044
7.880000	-0.030213
7.882000	-0.028077
7.884000	-0.024109
7.886000	-0.018006
7.888000	-0.011902
7.890000	-0.006409
7.892000	-0.001526
7.894000	0.002136
7.896000	0.005188
7.898000	0.007630
7.900000	0.009461
7.902000	0.011292
7.904000	0.012207
7.906000	0.012512
7.908000	0.010987
7.910000	0.008545
7.912000	0.003967
7.914000	-0.003052
7.916000	-0.010987
7.918000	-0.019532
7.920000	-0.029297
7.922000	-0.037537
7.924000	-0.043946
7.926000	-0.047913
7.928000	-0.050050
7.930000	-0.050050
7.932000	-0.049439
7.934000	-0.049744
7.936000	-0.049134
7.938000	-0.048829
7.940000	-0.047303
7.942000	-0.046998
7.944000	-0.045777
7.946000	-0.043946
7.948000	-0.043641
7.950000	-0.043030
7.952000	-0.042725
7.954000	-0.042420
7.956000	-0.043336
7.958000	-0.046082
7.960000	-0.050355
7.962000	-0.055848
7.964000	-0.057679
7.966000	-0.050660
7.968000	-0.029603
7.970000	0.004883
7.972000	0.054932
7.974000	0.123293
7.976000	0.207523
7.978000	0.304265
7.980000	0.405585
7.982000	0.499275
7.984000	0.568856
7.986000	0.601205
7.988000	0.586252
7.990000	0.524605
7.992000	0.424201
7.994000	0.295720
7.996000	0.153506
7.998000	0.012818
8.000000	-0.111696
8.002000	-0.205386
8.004000	-0.260014
8.006000	-0.275883
8.008000	-0.260319
8.010000	-0.223392
8.012000	-0.176394
8.014000	-0.130312
8.016000	-0.091554
8.018000	-0.065309
8.020000	-0.049744
8.022000	-0.043641
8.024000	-0.044862
8.026000	-0.050965
8.028000	-0.058595
8.030000	-0.066224
8.032000	-0.072633
8.034000	-0.077821
8.036000	-0.079652
8.038000	-0.080262
8.040000	-0.079042
8.042000	-0.077821
8.044000	-0.075380
8.046000	-0.072633
8.048000	-0.070497
8.050000	-0.068971
8.052000	-0.068055
8.054000	-0.066529
8.056000	-0.066224
8.058000	-0.065614
8.060000	-0.064088
8.062000	-0.061341
8.064000	-0.057679
8.066000	-0.054017
8.068000	-0.050660
8.070000	-0.047303
8.072000	-0.043946
8.074000	-0.041505
8.076000	-0.040589
8.078000	-0.039673
8.080000	-0.039063
8.082000	-0.038758
8.084000	-0.037537
8.086000	-0.036011
8.088000	-0.033875
8.090000	-0.030823
8.092000	-0.027466
8.094000	-0.022889
8.096000	-0.018006
8.098000	-0.012207
8.100000	-0.007630
8.102000	-0.004883
8.104000	-0.001526
8.106000	0.000610
8.108000	0.001221
8.110000	0.000610
8.112000	0.000000
8.114000	-0.001221
8.116000	-0.001526
8.118000	0.000000
8.120000	0.003052
8.122000	0.007935
8.124000	0.013733
8.126000	0.020447
8.128000	0.027466
8.130000	0.033570
8.132000	0.037842
8.134000	0.039063
8.136000	0.036927
8.138000	0.030823
8.140000	0.021668
8.142000	0.009461
8.144000	-0.003662
8.146000	-0.016785
8.148000	-0.030518
8.150000	-0.042725
8.152000	-0.052491
8.154000	-0.059510
8.156000	-0.064393
8.158000	-0.067445
8.160000	-0.068055
8.162000	-0.068971
8.164000	-0.069276
8.166000	-0.068666
8.168000	-0.068971
8.170000	-0.068971
8.172000	-0.069886
8.174000	-0.070192
8.176000	-0.069886
8.178000	-0.068971
8.180000	-0.067750
8.182000	-0.065309
8.184000	-0.063478
8.186000	-0.061341
8.188000	-0.059205
8.190000	-0.057984
8.192000	-0.057374
8.194000	-0.057374
8.196000	-0.057679
8.198000	-0.058900
8.200000	-0.060121
8.202000	-0.060121
8.204000	-0.059815
8.206000	-0.059205
8.208000	-0.057374
8.210000	-0.055543
8.212000	-0.053712
8.214000	-0.052796
8.216000	-0.052491
8.218000	-0.052186
8.220000	-0.053712
8.222000	-0.055848
8.224000	-0.057679
8.226000	-0.059205
8.228000	-0.060426
8.230000	-0.061036
8.232000	-0.060121
8.234000	-0.059205
8.236000	-0.058595
8.238000	-0.057069
8.240000	-0.055848
8.242000	-0.053101
8.244000	-0.050965
8.246000	-0.048829
8.248000	-0.046387
8.250000	-0.043030
8.252000	-0.040589
8.254000	-0.038758
8.256000	-0.038148
8.258000	-0.037842
8.260000	-0.038758
8.262000	-0.040589
8.264000	-0.042725
8.266000	-0.044862
8.268000	-0.047913
8.270000	-0.048829
8.272000	-0.048829
8.274000	-0.048524
8.276000	-0.046998
8.278000	-0.045167
8.280000	-0.043946
8.282000	-0.042420
8.284000	-0.040589
8.286000	-0.039368
8.288000	-0.037842
8.290000	-0.037537
8.292000	-0.036927
8.294000	-0.036316
8.296000	-0.034791
8.298000	-0.033570
8.300000	-0.031739
8.302000	-0.030823
8.304000	-0.030213
8.306000	-0.029297
8.308000	-0.029603
8.310000	-0.029603
8.312000	-0.030213
8.314000	-0.032349
8.316000	-0.033875
8.318000	-0.035401
8.320000	-0.037232
8.322000	-0.038453
8.324000	-0.039979
8.326000	-0.040284
8.328000	-0.040589
8.330000	-0.039673
8.332000	-0.038758
8.334000	-0.036622
8.336000	-0.033570
8.338000	-0.030823
8.340000	-0.027771
8.342000	-0.025940
8.344000	-0.024414
8.346000	-0.022889
8.348000	-0.021363
8.350000	-0.018921
8.352000	-0.016175
8.354000	-0.013428
8.356000	-0.009766
8.358000	-0.005188
8.360000	-0.000610
8.362000	0.003357
8.364000	0.006714
8.366000	0.010376
8.368000	0.013733
8.370000	0.015869
8.372000	0.016785
8.374000	0.015869
8.376000	0.014343
8.378000	0.010987
8.380000	0.006409
8.382000	-0.000305
8.384000	-0.008545
8.386000	-0.016785
8.388000	-0.024414
8.390000	-0.032044
8.392000	-0.038453
8.394000	-0.042420
8.396000	-0.044556
8.398000	-0.045777
8.400000	-0.046082
8.402000	-0.046387
8.404000	-0.046387
8.406000	-0.046387
8.408000	-0.045777
8.410000	-0.045777
8.412000	-0.046387
8.414000	-0.046693
8.416000	-0.046693
8.418000	-0.046693
8.420000	-0.046387
8.422000	-0.045777
8.424000	-0.045167
8.426000	-0.044862
8.428000	-0.046082
8.430000	-0.045167
8.432000	-0.037842
8.434000	-0.018616
8.436000	0.013123
8.438000	0.061036
8.440000	0.125124
8.442000	0.207523
8.444000	0.304265
8.446000	0.408942
8.448000	0.509346
8.450000	0.591135
8.452000	0.637522
8.454000	0.637522
8.456000	0.587472
8.458000	0.494392
8.460000	0.368963
8.462000	0.223697
8.464000	0.075074
8.466000	-0.061341
8.468000	-0.170291
8.470000	-0.241093
8.472000	-0.271000
8.474000	-0.265507
8.476000	-0.234073
8.478000	-0.190127
8.480000	-0.143130
8.482000	-0.102235
8.484000	-0.071717
8.486000	-0.053101
8.488000	-0.044862
8.490000	-0.044251
8.492000	-0.048524
8.494000	-0.054322
8.496000	-0.061036
8.498000	-0.065919
8.500000	-0.069581
8.502000	-0.071412
8.504000	-0.072633
8.506000	-0.073243
8.508000	-0.073243
8.510000	-0.072938
8.512000	-0.071717
8.514000	-0.070802
8.516000	-0.069276
8.518000	-0.067140
8.520000	-0.064088
8.522000	-0.061036
8.524000	-0.057679
8.526000	-0.054627
8.528000	-0.052186
8.530000	-0.049439
8.532000	-0.046998
8.534000	-0.044556
8.536000	-0.041505
8.538000	-0.038148
8.540000	-0.034485
8.542000	-0.030518
8.544000	-0.028077
8.546000	-0.025330
8.548000	-0.023804
8.550000	-0.022889
8.552000	-0.023194
8.554000	-0.023499
8.556000	-0.024109
8.558000	-0.023804
8.560000	-0.022583
8.562000	-0.019837
8.564000	-0.016175
8.566000	-0.011597
8.568000	-0.006409
8.570000	-0.000916
8.572000	0.003052
8.574000	0.006409
8.576000	0.007935
8.578000	0.008240
8.580000	0.008545
8.582000	0.008545
8.584000	0.008240
8.586000	0.009766
8.588000	0.013123
8.590000	0.018006
8.592000	0.023804
8.594000	0.030518
8.596000	0.036622
8.598000	0.042115
8.600000	0.044251
8.602000	0.043336
8.604000	0.039063
8.606000	0.030823
8.608000	0.019532
8.610000	0.006409
8.612000	-0.007019
8.614000	-0.019837
8.616000	-0.032044
8.618000	-0.042420
8.620000	-0.050050
8.622000	-0.056153
8.624000	-0.059815
8.626000	-0.061952
8.628000	-0.063478
8.630000	-0.064088
8.632000	-0.064698
8.634000	-0.065309
8.636000	-0.065309
8.638000	-0.064698
8.640000	-0.064393
8.642000	-0.062867
8.644000	-0.062257
8.646000	-0.061036
8.648000	-0.059815
8.650000	-0.059815
8.652000	-0.059205
8.654000	-0.059205
8.656000	-0.058900
8.658000	-0.058595
8.660000	-0.057984
8.662000	-0.057069
8.664000	-0.054932
8.666000	-0.053407
8.668000	-0.051881
8.670000	-0.050965
8.672000	-0.050050
8.674000	-0.050355
8.676000	-0.051270
8.678000	-0.052491
8.680000	-0.054322
8.682000	-0.055238
8.684000	-0.056153
8.686000	-0.055848
8.688000	-0.054932
8.690000	-0.053101
8.692000	-0.050965
8.694000	-0.047913
8.696000	-0.045472
8.698000	-0.042420
8.700000	-0.038758
8.702000	-0.036011
8.704000	-0.033875
8.706000	-0.032654
8.708000	-0.032044
8.710000	-0.032654
8.712000	-0.034180
8.714000	-0.036316
8.716000	-0.039673
8.718000	-0.043030
8.720000	-0.045777
8.722000	-0.046387
8.724000	-0.046387
8.726000	-0.044556
8.728000	-0.042725
8.730000	-0.039979
8.732000	-0.036927
8.734000	-0.033570
8.736000	-0.032349
8.738000	-0.031434
8.740000	-0.030823
8.742000	-0.031128
8.744000	-0.032654
8.746000	-0.034791
8.748000	-0.035706
8.750000	-0.036927
8.752000	-0.038148
8.754000	-0.039063
8.756000	-0.039673
8.758000	-0.039368
8.760000	-0.038148
8.762000	-0.036927
8.764000	-0.036011
8.766000	-0.034791
8.768000	-0.033875
8.770000	-0.033265
8.772000	-0.032959
8.774000	-0.032654
8.776000	-0.032654
8.778000	-0.032349
8.780000	-0.031128
8.782000	-0.029908
8.784000	-0.028687
8.786000	-0.027771
8.788000	-0.026856
8.790000	-0.026246
8.792000	-0.025635
8.794000	-0.025330
8.796000	-0.024720
8.798000	-0.024720
8.800000	-0.024109
8.802000	-0.023194
8.804000	-0.022889
8.806000	-0.022583
8.808000	-0.022889
8.810000	-0.022583
8.812000	-0.022583
8.814000	-0.022583
8.816000	-0.021668
8.818000	-0.020142
8.820000	-0.018616
8.822000	-0.015564
8.824000	-0.011292
8.826000	-0.007019
8.828000	-0.002747
8.830000	0.000916
8.832000	0.004273
8.834000	0.007019
8.836000	0.007935
8.838000	0.006714
8.840000	0.003357
8.842000	-0.001831
8.844000	-0.007935
8.846000	-0.014649
8.848000	-0.021363
8.850000	-0.026856
8.852000	-0.031128
8.854000	-0.033875
8.856000	-0.034180
8.858000	-0.032959
8.860000	-0.030823
8.862000	-0.027466
8.864000	-0.024720
8.866000	-0.022889
8.868000	-0.021668
8.870000	-0.021363
8.872000	-0.021668
8.874000	-0.022889
8.876000	-0.024109
8.878000	-0.025940
8.880000	-0.027466
8.882000	-0.028992
8.884000	-0.031739
8.886000	-0.032654
8.888000	-0.025635
8.890000	-0.007019
8.892000	0.025330
8.894000	0.073243
8.896000	0.137331
8.898000	0.216983
8.900000	0.309758
8.902000	0.408331
8.904000	0.500496
8.906000	0.572213
8.908000	0.607919
8.910000	0.598154
8.912000	0.542611
8.914000	0.447089
8.916000	0.323186
8.918000	0.183719
8.920000	0.044556
8.922000	-0.079957
8.924000	-0.176089
8.926000	-0.234684
8.928000	-0.255131
8.930000	-0.242618
8.932000	-0.208133
8.934000	-0.163577
8.936000	-0.118410
8.938000	-0.079652
8.940000	-0.051575
8.942000	-0.036316
8.944000	-0.031128
8.946000	-0.032959
8.948000	-0.039673
8.950000	-0.048219
8.952000	-0.055848
8.954000	-0.061036
8.956000	-0.064088
8.958000	-0.063783
8.960000	-0.061036
8.962000	-0.057374
8.964000	-0.053407
8.966000	-0.048829
8.968000	-0.045167
8.970000	-0.042115
8.972000	-0.040284
8.974000	-0.039673
8.976000	-0.040284
8.978000	-0.040284
8.980000	-0.039673
8.982000	-0.037842
8.984000	-0.036011
8.986000	-0.033265
8.988000	-0.030213
8.990000	-0.027466
8.992000	-0.025025
8.994000	-0.022583
8.996000	-0.019837
8.998000	-0.018311
9.000000	-0.017090
9.002000	-0.016785
9.004000	-0.016175
9.006000	-0.015259
9.008000	-0.014649
9.010000	-0.014649
9.012000	-0.013428
9.014000	-0.012512
9.016000	-0.010681
9.018000	-0.007935
9.020000	-0.004273
9.022000	0.000000
9.024000	0.004883
9.026000	0.009766
9.028000	0.015564
9.030000	0.020142
9.032000	0.023499
9.034000	0.024414
9.036000	0.025330
9.038000	0.025025
9.040000	0.024109
9.042000	0.024109
9.044000	0.023194
9.046000	0.024720
9.048000	0.026551
9.050000	0.029908
9.052000	0.032044
9.054000	0.032654
9.056000	0.032349
9.058000	0.029603
9.060000	0.025025
9.062000	0.019226
9.064000	0.010987
9.066000	0.000916
9.068000	-0.008240
9.070000	-0.018311
9.072000	-0.026856
9.074000	-0.034791
9.076000	-0.042420
9.078000	-0.048219
9.080000	-0.053101
9.082000	-0.055848
9.084000	-0.057679
9.086000	-0.057984
9.088000	-0.058595
9.090000	-0.058289
9.092000	-0.057374
9.094000	-0.057374
9.096000	-0.057069
9.098000	-0.057984
9.100000	-0.058900
9.102000	-0.059510
9.104000	-0.060426
9.106000	-0.059815
9.108000	-0.058900
9.110000	-0.056153
9.112000	-0.054932
9.114000	-0.054627
9.116000	-0.054627
9.118000	-0.055543
9.120000	-0.057679
9.122000	-0.060426
9.124000	-0.063783
9.126000	-0.067750
9.128000	-0.069581
9.130000	-0.070497
9.132000	-0.068971
9.134000	-0.065919
9.136000	-0.061036
9.138000	-0.056458
9.140000	-0.051270
9.142000	-0.046998
9.144000	-0.043030
9.146000	-0.041199
9.148000	-0.039979
9.150000	-0.039673
9.152000	-0.040589
9.154000	-0.041505
9.156000	-0.042725
9.158000	-0.042725
9.160000	-0.043336
9.162000	-0.043336
9.164000	-0.043641
9.166000	-0.043946
9.168000	-0.043641
9.170000	-0.043946
9.172000	-0.043336
9.174000	-0.042420
9.176000	-0.041505
9.178000	-0.040894
9.180000	-0.039673
9.182000	-0.038758
9.184000	-0.038148
9.186000	-0.037537
9.188000	-0.037232
9.190000	-0.037842
9.192000	-0.039368
9.194000	-0.039979
9.196000	-0.041199
9.198000	-0.042115
9.200000	-0.041810
9.202000	-0.040284
9.204000	-0.038453
9.206000	-0.036622
9.208000	-0.034180
9.210000	-0.033875
9.212000	-0.033570
9.214000	-0.034791
9.216000	-0.036622
9.218000	-0.040284
9.220000	-0.043641
9.222000	-0.046693
9.224000	-0.048219
9.226000	-0.048524
9.228000	-0.047913
9.230000	-0.047608
9.232000	-0.046387
9.234000	-0.044556
9.236000	-0.043641
9.238000	-0.042725
9.240000	-0.042420
9.242000	-0.042725
9.244000	-0.042725
9.246000	-0.041199
9.248000	-0.039673
9.250000	-0.037537
9.252000	-0.036011
9.254000	-0.034180
9.256000	-0.032959
9.258000	-0.031739
9.260000	-0.031434
9.262000	-0.030213
9.264000	-0.029297
9.266000	-0.028077
9.268000	-0.026856
9.270000	-0.025940
9.272000	-0.024720
9.274000	-0.023804
9.276000	-0.023804
9.278000	-0.023499
9.280000	-0.023804
9.282000	-0.024109
9.284000	-0.024109
9.286000	-0.023499
9.288000	-0.021973
9.290000	-0.020752
9.292000	-0.020142
9.294000	-0.018616
9.296000	-0.017700
9.298000	-0.018311
9.300000	-0.019226
9.302000	-0.022278
9.304000	-0.025025
9.306000	-0.028077
9.308000	-0.031128
9.310000	-0.033570
9.312000	-0.035401
9.314000	-0.035706
9.316000	-0.035096
9.318000	-0.033875
9.320000	-0.031739
9.322000	-0.028687
9.324000	-0.026246
9.326000	-0.022889
9.328000	-0.019837
9.330000	-0.016480
9.332000	-0.012818
9.334000	-0.010376
9.336000	-0.009155
9.338000	-0.008545
9.340000	-0.008240
9.342000	-0.009766
9.344000	-0.011597
9.346000	-0.014649
9.348000	-0.017700
9.350000	-0.021363
9.352000	-0.024414
9.354000	-0.026856
9.356000	-0.028992
9.358000	-0.031128
9.360000	-0.033570
9.362000	-0.036011
9.364000	-0.037537
9.366000	-0.038148
9.368000	-0.037842
9.370000	-0.038453
9.372000	-0.037232
9.374000	-0.035401
9.376000	-0.032959
9.378000	-0.030823
9.380000	-0.029603
9.382000	-0.028992
9.384000	-0.030823
9.386000	-0.033875
9.388000	-0.036011
9.390000	-0.032044
9.392000	-0.015869
9.394000	0.014343
9.396000	0.059815
9.398000	0.120546
9.400000	0.196536
9.402000	0.284428
9.404000	0.377508
9.406000	0.462654
9.408000	0.527962
9.410000	0.558785
9.412000	0.545357
9.414000	0.487373
9.416000	0.393378
9.418000	0.273747
9.420000	0.141299
9.422000	0.010681
9.424000	-0.104982
9.426000	-0.192264
9.428000	-0.244144
9.430000	-0.258488
9.432000	-0.243534
9.434000	-0.207523
9.436000	-0.162051
9.438000	-0.117800
9.440000	-0.081483
9.442000	-0.054932
9.444000	-0.041199
9.446000	-0.036622
9.448000	-0.038758
9.450000	-0.044862
9.452000	-0.052186
9.454000	-0.058595
9.456000	-0.062867
9.458000	-0.065003
9.460000	-0.064088
9.462000	-0.061341
9.464000	-0.057984
9.466000	-0.054017
9.468000	-0.050050
9.470000	-0.046387
9.472000	-0.042725
9.474000	-0.039368
9.476000	-0.037232
9.478000	-0.035096
9.480000	-0.032959
9.482000	-0.031434
9.484000	-0.029603
9.486000	-0.028687
9.488000	-0.027161
9.490000	-0.026246
9.492000	-0.025330
9.494000	-0.025025
9.496000	-0.025025
9.498000	-0.025025
9.500000	-0.024720
9.502000	-0.024414
9.504000	-0.024720
9.506000	-0.024109
9.508000	-0.023499
9.510000	-0.022278
9.512000	-0.019837
9.514000	-0.016480
9.516000	-0.012512
9.518000	-0.008545
9.520000	-0.003967
9.522000	0.000000
9.524000	0.004273
9.526000	0.008850
9.528000	0.013428
9.530000	0.016785
9.532000	0.018616
9.534000	0.020447
9.536000	0.021363
9.538000	0.021973
9.540000	0.023194
9.542000	0.024414
9.544000	0.025330
9.546000	0.027466
9.548000	0.029908
9.550000	0.032959
9.552000	0.036316
9.554000	0.039063
9.556000	0.041199
9.558000	0.041199
9.560000	0.038453
9.562000	0.033875
9.564000	0.026856
9.566000	0.016785
9.568000	0.006104
9.570000	-0.004883
9.572000	-0.015869
9.574000	-0.026246
9.576000	-0.034791
9.578000	-0.041199
9.580000	-0.046082
9.582000	-0.048829
9.584000	-0.050660
9.586000	-0.051575
9.588000	-0.052491
9.590000	-0.054322
9.592000	-0.055543
9.594000	-0.056153
9.596000	-0.056153
9.598000	-0.056153
9.600000	-0.055848
9.602000	-0.055238
9.604000	-0.054322
9.606000	-0.052796
9.608000	-0.050050
9.610000	-0.047913
9.612000	-0.045167
9.614000	-0.043030
9.616000	-0.041199
9.618000	-0.038453
9.620000	-0.035706
9.622000	-0.034180
9.624000	-0.031739
9.626000	-0.030823
9.628000	-0.031128
9.630000	-0.031739
9.632000	-0.032654
9.634000	-0.033265
9.636000	-0.032654
9.638000	-0.032349
9.640000	-0.031739
9.642000	-0.030823
9.644000	-0.030213
9.646000	-0.028992
9.648000	-0.027771
9.650000	-0.027466
9.652000	-0.027466
9.654000	-0.027161
9.656000	-0.026856
9.658000	-0.025025
9.660000	-0.023194
9.662000	-0.020752
9.664000	-0.018311
9.666000	-0.016785
9.668000	-0.015259
9.670000	-0.014649
9.672000	-0.015564
9.674000	-0.018311
9.676000	-0.021057
9.678000	-0.023804
9.680000	-0.025940
9.682000	-0.027466
9.684000	-0.029603
9.686000	-0.029603
9.688000	-0.028687
9.690000	-0.027771
9.692000	-0.026246
9.694000	-0.025635
9.696000	-0.025025
9.698000	-0.025025
9.700000	-0.025940
9.702000	-0.026551
9.704000	-0.027771
9.706000	-0.028992
9.708000	-0.029603
9.710000	-0.028992
9.712000	-0.028077
9.714000	-0.025330
9.716000	-0.021973
9.718000	-0.019532
9.720000	-0.017090
9.722000	-0.015259
9.724000	-0.014343
9.726000	-0.014343
9.728000	-0.014343
9.730000	-0.015564
9.732000	-0.017090
9.734000	-0.017395
9.736000	-0.018006
9.738000	-0.017090
9.740000	-0.017090
9.742000	-0.016785
9.744000	-0.016480
9.746000	-0.016785
9.748000	-0.017700
9.750000	-0.018921
9.752000	-0.021057
9.754000	-0.023194
9.756000	-0.025025
9.758000	-0.026551
9.760000	-0.027771
9.762000	-0.028382
9.764000	-0.028077
9.766000	-0.027771
9.768000	-0.027161
9.770000	-0.026246
9.772000	-0.025025
9.774000	-0.024109
9.776000	-0.023499
9.778000	-0.022889
9.780000	-0.021363
9.782000	-0.020142
9.784000	-0.018616
9.786000	-0.015869
9.788000	-0.013123
9.790000	-0.010376
9.792000	-0.009155
9.794000	-0.007935
9.796000	-0.007935
9.798000	-0.009155
9.800000	-0.010376
9.802000	-0.012207
9.804000	-0.014954
9.806000	-0.016785
9.808000	-0.018616
9.810000	-0.020447
9.812000	-0.021057
9.814000	-0.020752
9.816000	-0.020447
9.818000	-0.019532
9.820000	-0.018311
9.822000	-0.017090
9.824000	-0.014649
9.826000	-0.012512
9.828000	-0.010376
9.830000	-0.007935
9.832000	-0.006409
9.834000	-0.005798
9.836000	-0.005188
9.838000	-0.005493
9.840000	-0.006104
9.842000	-0.007324
9.844000	-0.010071
9.846000	-0.013123
9.848000	-0.015259
9.850000	-0.017090
9.852000	-0.018006
9.854000	-0.018311
9.856000	-0.017700
9.858000	-0.017090
9.860000	-0.014649
9.862000	-0.012512
9.864000	-0.009766
9.866000	-0.007630
9.868000	-0.006104
9.870000	-0.004273
9.872000	-0.003357
9.874000	-0.002747
9.876000	-0.003052
9.878000	-0.003662
9.880000	-0.003357
9.882000	-0.003052
9.884000	-0.000610
9.886000	0.003662
9.888000	0.009155
9.890000	0.014954
9.892000	0.021973
9.894000	0.029297
9.896000	0.036622
9.898000	0.042725
9.900000	0.047608
9.902000	0.050965
9.904000	0.053407
9.906000	0.053712
9.908000	0.053407
9.910000	0.052796
9.912000	0.049134
9.914000	0.043336
9.916000	0.035096
9.918000	0.025635
9.920000	0.014954
9.922000	0.003357
9.924000	-0.007630
9.926000	-0.017700
9.928000	-0.025330
9.930000	-0.030518
9.932000	-0.032959
9.934000	-0.034180
9.936000	-0.033265
9.938000	-0.031739
9.940000	-0.029297
9.942000	-0.027466
9.944000	-0.026246
9.946000	-0.025635
9.948000	-0.025635
9.950000	-0.026246
9.952000	-0.027466
9.954000	-0.028687
9.956000	-0.029297
9.958000	-0.030213
9.960000	-0.029908
9.962000	-0.029297
9.964000	-0.028687
9.966000	-0.028077
9.968000	-0.023804
9.970000	-0.011292
9.972000	0.011902
9.974000	0.047303
9.976000	0.094606
9.978000	0.155032
9.980000	0.227970
9.982000	0.309148
9.984000	0.390021
9.986000	0.460212
9.988000	0.505989
9.990000	0.515145
9.992000	0.484016
9.994000	0.414435
9.996000	0.314641
9.998000	0.197452
10.000000	0.074464
10.002000	-0.041810
10.004000	-0.137331
10.006000	-0.202029
10.008000	-0.231327
10.010000	-0.228275
10.012000	-0.200504
10.014000	-0.159609
10.016000	-0.114748
10.018000	-0.074464
10.020000	-0.043641
10.022000	-0.023194
10.024000	-0.013428
10.026000	-0.011902
10.028000	-0.014649
10.030000	-0.019837
10.032000	-0.025330
10.034000	-0.029603
10.036000	-0.032654
10.038000	-0.033875
10.040000	-0.033570
10.042000	-0.032044
10.044000	-0.028992
10.046000	-0.025330
10.048000	-0.021973
10.050000	-0.018921
10.052000	-0.015564
10.054000	-0.013123
10.056000	-0.010681
10.058000	-0.009155
10.060000	-0.007019
10.062000	-0.004578
10.064000	-0.002136
10.066000	-0.000305
10.068000	0.000916
10.070000	0.003967
10.072000	0.006714
10.074000	0.008240
10.076000	0.008850
10.078000	0.008545
10.080000	0.007630
10.082000	0.005798
10.084000	0.004883
10.086000	0.003967
10.088000	0.004578
10.090000	0.006104
10.092000	0.008545
10.094000	0.011902
10.096000	0.015259
10.098000	0.019532
10.100000	0.023194
10.102000	0.026551
10.104000	0.028992
10.106000	0.030213
10.108000	0.031128
10.110000	0.032349
10.112000	0.033265
10.114000	0.033875
10.116000	0.034180
10.118000	0.034485
10.120000	0.035401
10.122000	0.036316
10.124000	0.038148
10.126000	0.039979
10.128000	0.043030
10.130000	0.046387
10.132000	0.050050
10.134000	0.054322
10.136000	0.058900
10.138000	0.061646
10.140000	0.061341
10.142000	0.058289
10.144000	0.052796
10.146000	0.044251
10.148000	0.034180
10.150000	0.022583
10.152000	0.010681
10.154000	-0.001221
10.156000	-0.011902
10.158000	-0.019837
10.160000	-0.024414
10.162000	-0.027466
10.164000	-0.028687
10.166000	-0.028687
10.168000	-0.027771
10.170000	-0.026551
10.172000	-0.024414
10.174000	-0.023804
10.176000	-0.022889
10.178000	-0.023194
10.180000	-0.023804
10.182000	-0.024414
10.184000	-0.025330
10.186000	-0.026551
10.188000	-0.028077
10.190000	-0.028077
10.192000	-0.027466
10.194000	-0.026246
10.196000	-0.025330
10.198000	-0.023194
10.200000	-0.020752
10.202000	-0.018311
10.204000	-0.015869
10.206000	-0.014649
10.208000	-0.013428
10.210000	-0.013123
10.212000	-0.013733
10.214000	-0.015259
10.216000	-0.016480
10.218000	-0.018006
10.220000	-0.019226
10.222000	-0.020142
10.224000	-0.021668
10.226000	-0.022889
10.228000	-0.022889
10.230000	-0.021668
10.232000	-0.021363
10.234000	-0.020752
10.236000	-0.020447
10.238000	-0.019226
10.240000	-0.018311
10.242000	-0.018921
10.244000	-0.018311
10.246000	-0.018311
10.248000	-0.017700
10.250000	-0.016785
10.252000	-0.015259
10.254000	-0.014038
10.256000	-0.012207
10.258000	-0.010681
10.260000	-0.008545
10.262000	-0.006714
10.264000	-0.006104
10.266000	-0.004883
10.268000	-0.004273
10.270000	-0.003052
10.272000	-0.003357
10.274000	-0.004883
10.276000	-0.007019
10.278000	-0.009461
10.280000	-0.012512
10.282000	-0.014649
10.284000	-0.017395
10.286000	-0.020142
10.288000	-0.021973
10.290000	-0.021668
10.292000	-0.020447
10.294000	-0.018006
10.296000	-0.015564
10.298000	-0.013428
10.300000	-0.011597
10.302000	-0.010681
10.304000	-0.009461
10.306000	-0.008850
10.308000	-0.009766
10.310000	-0.010376
10.312000	-0.010987
10.314000	-0.011292
10.316000	-0.011597
10.318000	-0.012207
10.320000	-0.012512
10.322000	-0.012818
10.324000	-0.013428
10.326000	-0.014649
10.328000	-0.014954
10.330000	-0.014954
10.332000	-0.014954
10.334000	-0.013733
10.336000	-0.012207
10.338000	-0.010071
10.340000	-0.007324
10.342000	-0.004883
10.344000	-0.002747
10.346000	-0.001526
10.348000	-0.001221
10.350000	-0.000610
10.352000	-0.001221
10.354000	-0.003052
10.356000	-0.005493
10.358000	-0.008240
10.360000	-0.011292
10.362000	-0.014038
10.364000	-0.015259
10.366000	-0.017090
10.368000	-0.018006
10.370000	-0.018616
10.372000	-0.018921
10.374000	-0.018616
10.376000	-0.018311
10.378000	-0.018311
10.380000	-0.017700
10.382000	-0.016480
10.384000	-0.017090
10.386000	-0.017090
10.388000	-0.017395
10.390000	-0.017090
10.392000	-0.016785
10.394000	-0.017700
10.396000	-0.018311
10.398000	-0.018921
10.400000	-0.018616
10.402000	-0.017700
10.404000	-0.016785
10.406000	-0.015259
10.408000	-0.014343
10.410000	-0.012818
10.412000	-0.011597
10.414000	-0.010376
10.416000	-0.009766
10.418000	-0.009766
10.420000	-0.010071
10.422000	-0.010071
10.424000	-0.008850
10.426000	-0.006104
10.428000	-0.000916
10.430000	0.005798
10.432000	0.012512
10.434000	0.020447
10.436000	0.027771
10.438000	0.035096
10.440000	0.040589
10.442000	0.044556
10.444000	0.046082
10.446000	0.046387
10.448000	0.044862
10.450000	0.039979
10.452000	0.033875
10.454000	0.025635
10.456000	0.016175
10.458000	0.005798
10.460000	-0.004578
10.462000	-0.015564
10.464000	-0.025330
10.466000	-0.033570
10.468000	-0.039673
10.470000	-0.043946
10.472000	-0.045472
10.474000	-0.044862
10.476000	-0.043641
10.478000	-0.041199
10.480000	-0.038758
10.482000	-0.036316
10.484000	-0.033875
10.486000	-0.032349
10.488000	-0.032044
10.490000	-0.032654
10.492000	-0.033570
10.494000	-0.036011
10.496000	-0.038453
10.498000	-0.039673
10.500000	-0.040284
10.502000	-0.040589
10.504000	-0.042115
10.506000	-0.042725
10.508000	-0.037537
10.510000	-0.022889
10.512000	0.002747
10.514000	0.040589
10.516000	0.091249
10.518000	0.156863
10.520000	0.233463
10.522000	0.318608
10.524000	0.402533
10.526000	0.472724
10.528000	0.516670
10.530000	0.521553
10.532000	0.485237
10.534000	0.411078
10.536000	0.308232
10.538000	0.188296
10.540000	0.063783
10.542000	-0.051881
10.544000	-0.145266
10.546000	-0.206912
10.548000	-0.233158
10.550000	-0.227665
10.552000	-0.198672
10.554000	-0.157473
10.556000	-0.114443
10.558000	-0.075685
10.560000	-0.046998
10.562000	-0.029603
10.564000	-0.022278
10.566000	-0.023194
10.568000	-0.029297
10.570000	-0.037537
10.572000	-0.045472
10.574000	-0.052186
10.576000	-0.056458
10.578000	-0.058595
10.580000	-0.057984
10.582000	-0.054322
10.584000	-0.049744
10.586000	-0.044251
10.588000	-0.038758
10.590000	-0.034485
10.592000	-0.031434
10.594000	-0.028687
10.596000	-0.027466
10.598000	-0.027466
10.600000	-0.027771
10.602000	-0.029297
10.604000	-0.029603
10.606000	-0.028992
10.608000	-0.028382
10.610000	-0.027161
10.612000	-0.024414
10.614000	-0.021668
10.616000	-0.017700
10.618000	-0.014038
10.620000	-0.010071
10.622000	-0.006714
10.624000	-0.002441
10.626000	0.000305
10.628000	0.002136
10.630000	0.003357
10.632000	0.003662
10.634000	0.004273
10.636000	0.005493
10.638000	0.006104
10.640000	0.007630
10.642000	0.009766
10.644000	0.011902
10.646000	0.014649
10.648000	0.016785
10.650000	0.018921
10.652000	0.021057
10.654000	0.021973
10.656000	0.021668
10.658000	0.020447
10.660000	0.019226
10.662000	0.018006
10.664000	0.017090
10.666000	0.016785
10.668000	0.018006
10.670000	0.019532
10.672000	0.021973
10.674000	0.025330
10.676000	0.029297
10.678000	0.032349
10.680000	0.034180
10.682000	0.033875
10.684000	0.031739
10.686000	0.027466
10.688000	0.020752
10.690000	0.013428
10.692000	0.003662
10.694000	-0.006104
10.696000	-0.016480
10.698000	-0.025940
10.700000	-0.034485
10.702000	-0.041505
10.704000	-0.047608
10.706000	-0.051881
10.708000	-0.054322
10.710000	-0.055238
10.712000	-0.054932
10.714000	-0.053712
10.716000	-0.051270
10.718000	-0.048829
10.720000	-0.046387
10.722000	-0.043946
10.724000	-0.043030
10.726000	-0.042115
10.728000	-0.041810
10.730000	-0.043030
10.732000	-0.044556
10.734000	-0.046387
10.736000	-0.049439
10.738000	-0.051270
10.740000	-0.053407
10.742000	-0.054627
10.744000	-0.055238
10.746000	-0.055543
10.748000	-0.055543
10.750000	-0.054627
10.752000	-0.053712
10.754000	-0.052186
10.756000	-0.050660
10.758000	-0.049439
10.760000	-0.048829
10.762000	-0.048829
10.764000	-0.049439
10.766000	-0.049439
10.768000	-0.050355
10.770000	-0.050965
10.772000	-0.052491
10.774000	-0.052796
10.776000	-0.053712
10.778000	-0.052186
10.780000	-0.050965
10.782000	-0.049134
10.784000	-0.046693
10.786000	-0.045167
10.788000	-0.043336
10.790000	-0.041505
10.792000	-0.041199
10.794000	-0.041505
10.796000	-0.041199
10.798000	-0.040894
10.800000	-0.040284
10.802000	-0.039673
10.804000	-0.039063
10.806000	-0.037842
10.808000	-0.036622
10.810000	-0.036622
10.812000	-0.036316
10.814000	-0.037232
10.816000	-0.038758
10.818000	-0.040589
10.820000	-0.041505
10.822000	-0.043030
10.824000	-0.042420
10.826000	-0.041810
10.828000	-0.039979
10.830000	-0.038148
10.832000	-0.036316
10.834000	-0.034791
10.836000	-0.033875
10.838000	-0.033265
10.840000	-0.033265
10.842000	-0.034180
10.844000	-0.034485
10.846000	-0.035401
10.848000	-0.036011
10.850000	-0.036316
10.852000	-0.036927
10.854000	-0.037842
10.856000	-0.038758
10.858000	-0.039979
10.860000	-0.041505
10.862000	-0.043030
10.864000	-0.044556
10.866000	-0.045167
10.868000	-0.045167
10.870000	-0.044556
10.872000	-0.043336
10.874000	-0.041810
10.876000	-0.040589
10.878000	-0.039368
10.880000	-0.037537
10.882000	-0.037232
10.884000	-0.037842
10.886000	-0.037842
10.888000	-0.037842
10.890000	-0.039063
10.892000	-0.039979
10.894000	-0.040894
10.896000	-0.041505
10.898000	-0.042115
10.900000	-0.043030
10.902000	-0.043641
10.904000	-0.044251
10.906000	-0.044251
10.908000	-0.043641
10.910000	-0.043030
10.912000	-0.041810
10.914000	-0.040589
10.916000	-0.039368
10.918000	-0.037842
10.920000	-0.036622
10.922000	-0.035706
10.924000	-0.034180
10.926000	-0.033570
10.928000	-0.032349
10.930000	-0.031128
10.932000	-0.029297
10.934000	-0.028077
10.936000	-0.026551
10.938000	-0.025635
10.940000	-0.024109
10.942000	-0.022278
10.944000	-0.020447
10.946000	-0.017700
10.948000	-0.015259
10.950000	-0.012512
10.952000	-0.009155
10.954000	-0.006104
10.956000	-0.002136
10.958000	0.001221
10.960000	0.004578
10.962000	0.007935
10.964000	0.009766
10.966000	0.009766
10.968000	0.007324
10.970000	0.003052
10.972000	-0.002441
10.974000	-0.011292
10.976000	-0.020752
10.978000	-0.031128
10.980000	-0.039979
10.982000	-0.047608
10.984000	-0.054017
10.986000	-0.057679
10.988000	-0.059205
10.990000	-0.058289
10.992000	-0.057069
10.994000	-0.055238
10.996000	-0.053407
10.998000	-0.052186
11.000000	-0.051270
11.002000	-0.050660
11.004000	-0.050355
11.006000	-0.050965
11.008000	-0.052186
11.010000	-0.051881
11.012000	-0.051575
11.014000	-0.050660
11.016000	-0.050355
11.018000	-0.051881
11.020000	-0.054322
11.022000	-0.053712
11.024000	-0.045777
11.026000	-0.027466
11.028000	0.004273
11.030000	0.050355
11.032000	0.112306
11.034000	0.189212
11.036000	0.279545
11.038000	0.374456
11.040000	0.462654
11.042000	0.528267
11.044000	0.556649
11.046000	0.540169
11.048000	0.480659
11.050000	0.383917
11.052000	0.262150
11.054000	0.128176
11.056000	-0.004883
11.058000	-0.120241
11.060000	-0.205692
11.062000	-0.254215
11.064000	-0.266117
11.066000	-0.248722
11.068000	-0.212406
11.070000	-0.168765
11.072000	-0.126040
11.074000	-0.090333
11.076000	-0.064393
11.078000	-0.049439
11.080000	-0.043641
11.082000	-0.044251
11.084000	-0.048219
11.086000	-0.053712
11.088000	-0.059815
11.090000	-0.065614
11.092000	-0.069276
11.094000	-0.072633
11.096000	-0.074464
11.098000	-0.075380
11.100000	-0.075685
11.102000	-0.074159
11.104000	-0.072938
11.106000	-0.071107
11.108000	-0.069276
11.110000	-0.066224
11.112000	-0.064088
11.114000	-0.060731
11.116000	-0.056764
11.118000	-0.052491
11.120000	-0.048829
11.122000	-0.046082
11.124000	-0.043641
11.126000	-0.042115
11.128000	-0.041199
11.130000	-0.040589
11.132000	-0.039063
11.134000	-0.038148
11.136000	-0.036622
11.138000	-0.035401
11.140000	-0.033265
11.142000	-0.030518
11.144000	-0.027771
11.146000	-0.025025
11.148000	-0.021973
11.150000	-0.018616
11.152000	-0.015869
11.154000	-0.013428
11.156000	-0.011597
11.158000	-0.009766
11.160000	-0.007935
11.162000	-0.006104
11.164000	-0.004578
11.166000	-0.004273
11.168000	-0.003967
11.170000	-0.003967
11.172000	-0.004578
11.174000	-0.004883
11.176000	-0.005798
11.178000	-0.007019
11.180000	-0.007324
11.182000	-0.005798
11.184000	-0.004273
11.186000	-0.001831
11.188000	0.001831
11.190000	0.004883
11.192000	0.007935
11.194000	0.009155
11.196000	0.009155
11.198000	0.005798
11.200000	0.000000
11.202000	-0.007630
11.204000	-0.015869
11.206000	-0.024720
11.208000	-0.034180
11.210000	-0.043336
11.212000	-0.050965
11.214000	-0.057984
11.216000	-0.063478
11.218000	-0.067140
11.220000	-0.069886
11.222000	-0.072023
11.224000	-0.072938
11.226000	-0.073854
11.228000	-0.073854
11.230000	-0.073548
11.232000	-0.072938
11.234000	-0.072328
11.236000	-0.072328
11.238000	-0.072633
11.240000	-0.073243
11.242000	-0.072938
11.244000	-0.072938
11.246000	-0.072938
11.248000	-0.072328
11.250000	-0.071717
11.252000	-0.071107
11.254000	-0.069886
11.256000	-0.067750
11.258000	-0.066529
11.260000	-0.064698
11.262000	-0.063172
11.264000	-0.061646
11.266000	-0.060426
11.268000	-0.059205
11.270000	-0.058595
11.272000	-0.059205
11.274000	-0.059205
11.276000	-0.059510
11.278000	-0.060426
11.280000	-0.061341
11.282000	-0.062562
11.284000	-0.063783
11.286000	-0.064698
11.288000	-0.064698
11.290000	-0.063783
11.292000	-0.062562
11.294000	-0.061341
11.296000	-0.059815
11.298000	-0.057984
11.300000	-0.056458
11.302000	-0.054322
11.304000	-0.053407
11.306000	-0.052491
11.308000	-0.051270
11.310000	-0.050660
11.312000	-0.050355
11.314000	-0.049134
11.316000	-0.049134
11.318000	-0.048829
11.320000	-0.048524
11.322000	-0.048219
11.324000	-0.049134
11.326000	-0.050050
11.328000	-0.050355
11.330000	-0.050660
11.332000	-0.050965
11.334000	-0.050355
11.336000	-0.050355
11.338000	-0.050355
11.340000	-0.049744
11.342000	-0.049744
11.344000	-0.050660
11.346000	-0.051575
11.348000	-0.052491
11.350000	-0.053101
11.352000	-0.052796
11.354000	-0.052186
11.356000	-0.050965
11.358000	-0.048829
11.360000	-0.046082
11.362000	-0.043336
11.364000	-0.041505
11.366000	-0.039979
11.368000	-0.039979
11.370000	-0.041199
11.372000	-0.043336
11.374000	-0.045472
11.376000	-0.048219
11.378000	-0.049744
11.380000	-0.049744
11.382000	-0.049744
11.384000	-0.048829
11.386000	-0.048219
11.388000	-0.048219
11.390000	-0.048524
11.392000	-0.048524
11.394000	-0.048829
11.396000	-0.049744
11.398000	-0.049744
11.400000	-0.049439
11.402000	-0.048219
11.404000	-0.045777
11.406000	-0.041505
11.408000	-0.038148
11.410000	-0.034791
11.412000	-0.030518
11.414000	-0.026856
11.416000	-0.022278
11.418000	-0.018311
11.420000	-0.014649
11.422000	-0.011292
11.424000	-0.009766
11.426000	-0.010376
11.428000	-0.012512
11.430000	-0.018006
11.432000	-0.025330
11.434000	-0.033570
11.436000	-0.043336
11.438000	-0.051270
11.440000	-0.058289
11.442000	-0.063478
11.444000	-0.066529
11.446000	-0.066835
11.448000	-0.065003
11.450000	-0.062257
11.452000	-0.059510
11.454000	-0.055543
11.456000	-0.053101
11.458000	-0.050355
11.460000	-0.048219
11.462000	-0.046693
11.464000	-0.046387
11.466000	-0.045777
11.468000	-0.046693
11.470000	-0.047608
11.472000	-0.049439
11.474000	-0.053101
11.476000	-0.058289
11.478000	-0.062867
11.480000	-0.059510
11.482000	-0.044556
11.484000	-0.016480
11.486000	0.027771
11.488000	0.089418
11.490000	0.168765
11.492000	0.264286
11.494000	0.368658
11.496000	0.469062
11.498000	0.550546
11.500000	0.598459
11.502000	0.601205
11.504000	0.556039
11.506000	0.467842
11.508000	0.347601
11.510000	0.207218
11.512000	0.062867
11.514000	-0.069581
11.516000	-0.176699
11.518000	-0.246586
11.520000	-0.277104
11.522000	-0.272831
11.524000	-0.243839
11.526000	-0.201114
11.528000	-0.155947
11.530000	-0.115358
11.532000	-0.084230
11.534000	-0.063478
11.536000	-0.052186
11.538000	-0.049439
11.540000	-0.051575
11.542000	-0.057069
11.544000	-0.062562
11.546000	-0.067750
11.548000	-0.072023
11.550000	-0.074464
11.552000	-0.075685
11.554000	-0.076600
11.556000	-0.076295
11.558000	-0.075380
11.560000	-0.073243
11.562000	-0.071107
11.564000	-0.069276
11.566000	-0.067445
11.568000	-0.065614
11.570000	-0.063172
11.572000	-0.059815
11.574000	-0.055543
11.576000	-0.051270
11.578000	-0.046998
11.580000	-0.043030
11.582000	-0.038758
11.584000	-0.035096
11.586000	-0.032349
11.588000	-0.031434
11.590000	-0.031434
11.592000	-0.031739
11.594000	-0.032044
11.596000	-0.032349
11.598000	-0.032349
11.600000	-0.031434
11.602000	-0.029908
11.604000	-0.026856
11.606000	-0.024414
11.608000	-0.021668
11.610000	-0.018006
11.612000	-0.014649
11.614000	-0.010987
11.616000	-0.007324
11.618000	-0.003967
11.620000	0.000000
11.622000	0.002136
11.624000	0.004883
11.626000	0.006409
11.628000	0.007324
11.630000	0.007019
11.632000	0.006409
11.634000	0.006104
11.636000	0.005798
11.638000	0.007019
11.640000	0.008545
11.642000	0.010987
11.644000	0.014343
11.646000	0.018006
11.648000	0.021057
11.650000	0.022278
11.652000	0.021668
11.654000	0.017395
11.656000	0.010681
11.658000	0.001831
11.660000	-0.008545
11.662000	-0.019226
11.664000	-0.030213
11.666000	-0.040589
11.668000	-0.048829
11.670000	-0.054627
11.672000	-0.058900
11.674000	-0.060426
11.676000	-0.060121
11.678000	-0.059205
11.680000	-0.057069
11.682000	-0.054627
11.684000	-0.053101
11.686000	-0.051575
11.688000	-0.050660
11.690000	-0.051575
11.692000	-0.052796
11.694000	-0.054627
11.696000	-0.055848
11.698000	-0.057069
11.700000	-0.057069
11.702000	-0.055238
11.704000	-0.053407
11.706000	-0.050965
11.708000	-0.048524
11.710000	-0.045472
11.712000	-0.042115
11.714000	-0.039979
11.716000	-0.039368
11.718000	-0.038758
11.720000	-0.038758
11.722000	-0.039063
11.724000	-0.039979
11.726000	-0.039368
11.728000	-0.039979
11.730000	-0.040589
11.732000	-0.040894
11.734000	-0.040894
11.736000	-0.040589
11.738000	-0.040589
11.740000	-0.041505
11.742000	-0.041810
11.744000	-0.041505
11.746000	-0.041199
11.748000	-0.040894
11.750000	-0.039368
11.752000	-0.037842
11.754000	-0.035096
11.756000	-0.032349
11.758000	-0.029908
11.760000	-0.027771
11.762000	-0.026551
11.764000	-0.025635
11.766000	-0.025635
11.768000	-0.026246
11.770000	-0.027771
11.772000	-0.029908
11.774000	-0.031128
11.776000	-0.032044
11.778000	-0.032349
11.780000	-0.032349
11.782000	-0.031128
11.784000	-0.030823
11.786000	-0.030213
11.788000	-0.028382
11.790000	-0.027161
11.792000	-0.025025
11.794000	-0.023499
11.796000	-0.022889
11.798000	-0.022583
11.800000	-0.022278
11.802000	-0.022583
11.804000	-0.022889
11.806000	-0.022583
11.808000	-0.022583
11.810000	-0.022583
11.812000	-0.022278
11.814000	-0.021363
11.816000	-0.020752
11.818000	-0.019837
11.820000	-0.018921
11.822000	-0.018616
11.824000	-0.017700
11.826000	-0.017395
11.828000	-0.018616
11.830000	-0.019837
11.832000	-0.021973
11.834000	-0.023499
11.836000	-0.025635
11.838000	-0.027161
11.840000	-0.029297
11.842000	-0.031128
11.844000	-0.032044
11.846000	-0.031739
11.848000	-0.030213
11.850000	-0.028077
11.852000	-0.025330
11.854000	-0.022278
11.856000	-0.018921
11.858000	-0.014649
11.860000	-0.010376
11.862000	-0.005188
11.864000	-0.000610
11.866000	0.003357
11.868000	0.006714
11.870000	0.009155
11.872000	0.010071
11.874000	0.010071
11.876000	0.008240
11.878000	0.005798
11.880000	0.002441
11.882000	-0.001831
11.884000	-0.006104
11.886000	-0.010071
11.888000	-0.013733
11.890000	-0.015564
11.892000	-0.018006
11.894000	-0.019532
11.896000	-0.021057
11.898000	-0.022889
11.900000	-0.023804
11.902000	-0.024414
11.904000	-0.025330
11.906000	-0.026246
11.908000	-0.026856
11.910000	-0.027161
11.912000	-0.027466
11.914000	-0.027771
11.916000	-0.029297
11.918000	-0.032349
11.920000	-0.032959
11.922000	-0.027466
11.924000	-0.011597
11.926000	0.016785
11.928000	0.060426
11.930000	0.118410
11.932000	0.191653
11.934000	0.277409
11.936000	0.369574
11.938000	0.460212
11.940000	0.532235
11.942000	0.572824
11.944000	0.571908
11.946000	0.526741
11.948000	0.442817
11.950000	0.329290
11.952000	0.199283
11.954000	0.065309
11.956000	-0.056764
11.958000	-0.154726
11.960000	-0.218814
11.962000	-0.246281
11.964000	-0.240787
11.966000	-0.211795
11.968000	-0.169680
11.970000	-0.125124
11.972000	-0.085756
11.974000	-0.054932
11.976000	-0.036011
11.978000	-0.026856
11.980000	-0.025635
11.982000	-0.029908
11.984000	-0.036622
11.986000	-0.044862
11.988000	-0.051881
11.990000	-0.056764
11.992000	-0.059815
11.994000	-0.061341
11.996000	-0.061036
11.998000	-0.059510
12.000000	-0.057069
12.002000	-0.055238
12.004000	-0.053407
12.006000	-0.050660
12.008000	-0.047913
12.010000	-0.044862
12.012000	-0.041505
12.014000	-0.038758
12.016000	-0.035401
12.018000	-0.032349
12.020000	-0.028992
12.022000	-0.026856
12.024000	-0.024720
12.026000	-0.023804
12.028000	-0.023194
12.030000	-0.022889
12.032000	-0.022278
12.034000	-0.020142
12.036000	-0.018616
12.038000	-0.017090
12.040000	-0.014649
12.042000	-0.012818
12.044000	-0.010987
12.046000	-0.009461
12.048000	-0.008850
12.050000	-0.008240
12.052000	-0.008545
12.054000	-0.009155
12.056000	-0.010071
12.058000	-0.010987
12.060000	-0.010681
12.062000	-0.009155
12.064000	-0.006714
12.066000	-0.003357
12.068000	0.000000
12.070000	0.003662
12.072000	0.007324
12.074000	0.012207
12.076000	0.017090
12.078000	0.021363
12.080000	0.025940
12.082000	0.030823
12.084000	0.033875
12.086000	0.036622
12.088000	0.037842
12.090000	0.036622
12.092000	0.032349
12.094000	0.025940
12.096000	0.016785
12.098000	0.006104
12.100000	-0.005188
12.102000	-0.016785
12.104000	-0.027161
12.106000	-0.036927
12.108000	-0.043946
12.110000	-0.048829
12.112000	-0.051881
12.114000	-0.052796
12.116000	-0.051575
12.118000	-0.050660
12.120000	-0.048829
12.122000	-0.047913
12.124000	-0.046387
12.126000	-0.044556
12.128000	-0.043336
12.130000	-0.042725
12.132000	-0.042420
12.134000	-0.042725
12.136000	-0.043030
12.138000	-0.043641
12.140000	-0.044862
12.142000	-0.045472
12.144000	-0.046693
12.146000	-0.048219
12.148000	-0.049439
12.150000	-0.050050
12.152000	-0.049134
12.154000	-0.047303
12.156000	-0.046693
12.158000	-0.045472
12.160000	-0.043946
12.162000	-0.042115
12.164000	-0.040284
12.166000	-0.039368
12.168000	-0.037842
12.170000	-0.036927
12.172000	-0.036316
12.174000	-0.036011
12.176000	-0.034791
12.178000	-0.034485
12.180000	-0.032654
12.182000	-0.032349
12.184000	-0.031739
12.186000	-0.031434
12.188000	-0.031128
12.190000	-0.030213
12.192000	-0.029908
12.194000	-0.028992
12.196000	-0.028077
12.198000	-0.026551
12.200000	-0.024414
12.202000	-0.023499
12.204000	-0.023499
12.206000	-0.022889
12.208000	-0.021973
12.210000	-0.021057
12.212000	-0.020447
12.214000	-0.021057
12.216000	-0.022278
12.218000	-0.023804
12.220000	-0.025330
12.222000	-0.027771
12.224000	-0.030213
12.226000	-0.032044
12.228000	-0.034485
12.230000	-0.037232
12.232000	-0.038453
12.234000	-0.037842
12.236000	-0.035401
12.238000	-0.032654
12.240000	-0.029603
12.242000	-0.026856
12.244000	-0.024414
12.246000	-0.023194
12.248000	-0.023804
12.250000	-0.024720
12.252000	-0.026246
12.254000	-0.027466
12.256000	-0.028687
12.258000	-0.030823
12.260000	-0.030213
12.262000	-0.028992
12.264000	-0.026551
12.266000	-0.024414
12.268000	-0.021973
12.270000	-0.020142
12.272000	-0.018921
12.274000	-0.018311
12.276000	-0.018921
12.278000	-0.019837
12.280000	-0.021363
12.282000	-0.022583
12.284000	-0.024109
12.286000	-0.025330
12.288000	-0.026246
12.290000	-0.026246
12.292000	-0.026246
12.294000	-0.025940
12.296000	-0.025940
12.298000	-0.026246
12.300000	-0.026856
12.302000	-0.027466
12.304000	-0.028077
12.306000	-0.029603
12.308000	-0.030213
12.310000	-0.030518
12.312000	-0.029603
12.314000	-0.028382
12.316000	-0.025940
12.318000	-0.022583
12.320000	-0.018006
12.322000	-0.013733
12.324000	-0.010987
12.326000	-0.008850
12.328000	-0.007324
12.330000	-0.007324
12.332000	-0.008240
12.334000	-0.010987
12.336000	-0.014038
12.338000	-0.017700
12.340000	-0.021057
12.342000	-0.024414
12.344000	-0.025635
12.346000	-0.026551
12.348000	-0.026551
12.350000	-0.025330
12.352000	-0.023194
12.354000	-0.021057
12.356000	-0.018921
12.358000	-0.017090
12.360000	-0.015259
12.362000	-0.014038
12.364000	-0.014038
12.366000	-0.014649
12.368000	-0.015259
12.370000	-0.017090
12.372000	-0.019837
12.374000	-0.024109
12.376000	-0.025635
12.378000	-0.018311
12.380000	0.001221
12.382000	0.033570
12.384000	0.079347
12.386000	0.140078
12.388000	0.214237
12.390000	0.299382
12.392000	0.387579
12.394000	0.467231
12.396000	0.524300
12.398000	0.545968
12.400000	0.525826
12.402000	0.463874
12.404000	0.368048
12.406000	0.249638
12.408000	0.120546
12.410000	-0.004273
12.412000	-0.112612
12.414000	-0.191653
12.416000	-0.234684
12.418000	-0.242618
12.420000	-0.221561
12.422000	-0.182498
12.424000	-0.136416
12.426000	-0.093080
12.428000	-0.058289
12.430000	-0.035401
12.432000	-0.024720
12.434000	-0.023194
12.436000	-0.026856
12.438000	-0.034180
12.440000	-0.042115
12.442000	-0.049134
12.444000	-0.052491
12.446000	-0.052491
12.448000	-0.049744
12.450000	-0.045167
12.452000	-0.040284
12.454000	-0.035401
12.456000	-0.030823
12.458000	-0.028077
12.460000	-0.026856
12.462000	-0.026551
12.464000	-0.026856
12.466000	-0.027771
12.468000	-0.028992
12.470000	-0.029603
12.472000	-0.029908
12.474000	-0.029297
12.476000	-0.028077
12.478000	-0.026246
12.480000	-0.024414
12.482000	-0.022583
12.484000	-0.021057
12.486000	-0.018921
12.488000	-0.017700
12.490000	-0.016785
12.492000	-0.016785
12.494000	-0.016480
12.496000	-0.014954
12.498000	-0.013733
12.500000	-0.012207
12.502000	-0.009766
12.504000	-0.006104
12.506000	-0.003052
12.508000	0.000610
12.510000	0.004273
12.512000	0.007935
12.514000	0.011292
12.516000	0.013123
12.518000	0.015869
12.520000	0.018006
12.522000	0.019532
12.524000	0.021057
12.526000	0.022278
12.528000	0.024109
12.530000	0.026246
12.532000	0.027771
12.534000	0.029603
12.536000	0.031739
12.538000	0.033875
12.540000	0.035401
12.542000	0.036622
12.544000	0.036927
12.546000	0.036927
12.548000	0.034791
12.550000	0.030518
12.552000	0.024109
12.554000	0.015869
12.556000	0.006714
12.558000	-0.003052
12.560000	-0.014038
12.562000	-0.024414
12.564000	-0.033265
12.566000	-0.040589
12.568000	-0.045777
12.570000	-0.047608
12.572000	-0.046998
12.574000	-0.045167
12.576000	-0.042725
12.578000	-0.039979
12.580000	-0.037537
12.582000	-0.036011
12.584000	-0.036011
12.586000	-0.036927
12.588000	-0.039979
12.590000	-0.042115
12.592000	-0.043030
12.594000	-0.044862
