Mammal mice
Fs 1000
Integration ecg

28
131
235
338
441
545
649
751
853
957
1059
1162
1264
1366
1469
1571
1673
1775
1877
1980
2082
2184
2287
2390
2491
2594
2695
2798
2900
3001
3103
3205
3307
3410
3511
3613
3714
3816
3917
4019
4120
4222
4323
4425
4526
4628
4730
4831
4932
5034
5135
5237
5339
5440
5542
5642
5744
5846
5948
6049
6150
6252
6354
6455
6557
6658
6760
6861
6963
7064
7166
7267
7369
7471
7572
7673
7774
7876
7977
8079
8180
8282
8384
8484
8586
8687
8788
8890
8991
9093
9194
9296
9396
9498
9599
9701
9802
9903
10005
10106
10207
10308
10410
10511
10613
10714
10815
10917
11017
11119
11220
11321
11423
11524
11626
11727
11828
11929
12031
12133
12233
12335
12436
12537
12639
12740
12842
12942
13044
13145
13246
13347
13449
13550
13651
13753
13854
13956
14057
14159
14259
14361
14462
14563
14665
14766
14868
14968
15070
15171
15272
15374
15475
15576
15677
15778
15880
15981
16083
16184
16285
16386
16488
16589
16690
16792
16893
16995
17095
17197
17298
17400
17502
17602
17704
17805
17906
18007
18109
18210
18312
18414
18514
18616
18717
18819
18920
19022
19123
19224
19326
19427
19529
19630
19731
19832
19934
20035
20136
20238
20339
20441
20542
20643
20744
20846
20947
21049
21151
21252
21353
21454
21556
21657
21759
21861
21962
22064
22165
22267
22368
22469
22571
22672
22774
22875
22977
23078
23180
23281
23383
23484
23586
23688
23789
23891
23992
24094
24196
24297
24398
24500
24601
24703
24805
24906
25007
25109
25211
25312
25415
25516
25618
25719
25820
25922
26024
26125
26227
26329
26430
26532
26633
26735
26836
26938
27040
27142
27244
27346
27448
27549
27652
27753
27855
27957
28059
28161
28263
28365
28467
28568
28671
28772
28874
28976
29077
29179
29280
29384
29486
29588
29691
29793
29895
29997
30099
30202
30304
30406
30508
30610
30712
30814
30916
31018
31121
31223
31325
31427
31529
31631
31733
31835
31937
32040
32141
32244
32345
32448
32549
32652
32753
32856
32958
33060
33162
33263
33366
33467
33570
33671
33774
33876
33978
34080
34181
34284
34385
34488
34589
34691
34793
34895
34996
35099
35201
35303
35404
35507
35609
35711
35813
35914
36017
36118
36220
36322
36424
36526
36628
36730
36831
36934
37035
37137
37239
37341
37444
37545
37648
37749
37851
37953
38055
38157
38259
38361
38463
38565
38668
38769
38872
38974
39076
39178
39280
39382
39484
39586
39689
39790
39892
39994
40096
40198
40300
40402
40505
40607
40709
40811
40913
41015
41117
41220
41321
41424
41525
41628
41730
41832
41934
42037
42139
42241
42343
42445
42547
42649
42752
42854
42956
43058
43161
43262
43365
43466
43569
43671
43773
43875
43978
44079
44182
44284
44386
44488
44591
44693
44795
44897
45000
45102
45204
45306
45409
45511
45614
45716
45818
45921
46023
46125
46228
46330
46433
46535
46638
46740
46842
46945
47047
47150
47252
47355
47457
47560
47662
47765
47867
47970
48072
48174
48277
48379
48481
48584
48686
48789
48892
48994
49097
49200
49302
49405
49507
49610
49713
49816
49918
50021
50124
50227
50330
50432
50535
50637
50740
50842
50946
51048
51151
51253
51356
51459
51562
51664
51768
51870
51973
52076
52179
52282
52385
52489
52591
52695
52798
52901
53004
53108
53210
53314
53417
53521
53624
53727
53830
53933
54036
54139
54242
54346
54450
54553
54655
54759
54862
54964
55068
55171
55273
55377
55480
55582
55686
55789
55891
55995
56097
56201
56303
56406
56509
56612
56715
56818
56917
57024
57128
57231
57334
57436
57540
57643
57746
57850
57952
58055
58159
58262
58366
58469
58573
58676
58780
58883
58986
59090
59194
59297
59401
59504
59609
59714
59817
59922
60026
60130
60234
60339
60444
60549
60653
60758
60863
60970
61076
61184
61291
61395
61499
61604
61708
61813
61918
62022
62127
62231
62336
62439
62543
62647
62751
62855
62957
63062
63165
63269
63374
63477
63579
63683
63785
63889
63991
64095
64197
64301
64404
64508
64611
64716
64820
64922
65026
65129
65233
65336
65439
65543
65646
65750
65853
65957
66061
66165
66269
66372
66478
66583
66690
66795
66901
67005
67109
67214
67318
67422
67525
67630
67733
67838
67941
68045
68150
68253
68358
68461
68565
68668
68772
68877
68982
69087
69191
69296
69401
69507
69612
69717
69822
69927
70031
70136
70240
70345
70450
70555
70660
70765
70870
70976
71082
71188
71293
71398
71504
71611
71718
71824
71931
72036
72142
72248
72353
72458
72564
72669
72774
72878
72984
73088
73194
73298
73403
73507
73612
73716
73821
73925
74030
74134
74239
74344
74448
74553
74657
74762
74866
74972
75076
75182
75288
75395
75500
75606
75712
75818
75924
76030
76136
76241
76347
76452
76558
76663
76770
76875
76980
77085
77192
77296
77403
77509
77616
77721
77827
77932
78038
78143
78249
78354
78461
78566
78672
78777
78883
78988
79093
79198
79304
79408
79513
79619
79729
79836
79945
80053
80163
80275
80385
80494
80602
80711
80817
80924
81031
81138
81245
81341
81462
81571
81678
81784
81891
81997
82106
82214
82323
82433
82544
82654
82765
82874
82983
83091
83200
83309
83418
83526
83636
83744
83853
83962
84073
84182
84290
84399
84506
84613
84719
84826
84933
85041
85148
85256
85363
85470
85577
85686
85794
85903
86013
86122
86230
86337
86446
86554
86663
86771
86879
86986
87094
87202
87310
87416
87523
87630
87739
87846
87954
88061
88169
88278
88386
88494
88603
88711
88819
88927
89034
89142
89249
89357
89464
89572
89679
89786
89894
90003
90111
90218
90326
90433
90542
90651
90760
90868
90979
91088
91197
91306
91418
91528
91637
91746
91854
91964
92073
92182
92289
92397
92503
92612
92721
92828
92937
93045
93153
93262
93369
93478
93587
93697
93806
93917
94025
94135
94242
94352
94460
94569
94676
94785
94891
94999
95107
95215
95324
95435
95547
95657
95770
95881
95993
96102
96213
96322
96434
96544
96655
96765
96874
96985
97094
97205
97313
97424
97535
97645
97756
97866
97977
98088
98200
98313
98426
98539
98652
98764
98873
98983
99092
99202
99311
99421
99530
99640
99748
99860
99974
100097
100216
100331
100442
100553
100664
100774
100885
101000
101107
101230
101346
101462
101575
101689
101805
101924
102043
102157
102271
102385
102497
102611
102723
102834
102945
103056
103170
103283
103397
103514
103630
103745
103861
103976
104092
104208
104322
104437
104551
104664
104777
104889
105002
105096
105317
105443
105551
105661
105768
105876
105984
106093
106203
106311
106421
106530
106641
106751
106860
106971
107080
107190
107302
107416
107529
107640
107752
107862
107976
108088
108199
108311
108423
108538
108654
108768
108884
108998
109111
109222
109336
109449
109563
109677
109793
109908
110020
110134
110246
110359
110470
110582
110695
110807
110923
111038
111153
111268
111380
111496
111609
111723
111837
111949
112067
112184
112296
112409
112521
112635
112747
112857
112970
113083
113198
113313
113426
113540
113651
113765
113880
113994
114109
114221
114334
114451
114564
114679
114793
114906
115022
115138
115252
115368
115484
115598
115713
115825
115939
116054
116169
116285
116399
116511
116624
116736
116850
116964
117078
117193
117308
117422
117536
117650
117763
117877
117985
118100
118213
118326
118444
118562
118679
118796
118909
119022
119136
119248
119360
119474
119594
119710
119824
119938
120049
120162
120275
120388
120499
120610
120720
120828
120938
121049
121159
121270
121379
121488
121596
121704
121814
121923
122033
122143
122254
122365
122479
122599
122736
122871
123001
123127
123246
123362
123476
123588
123701
123814
123925
124037
124149
124261
124374
124486
124599
124713
124827
124941
125052
125162
125274
125387
125502
125618
125733
125849
125962
126075
126190
126303
126415
126529
126645
126759
126875
126989
127101
127216
127331
127445
127560
127675
127790
127904
128016
128126
128239
128353
128465
128580
128696
128812
128929
129045
129163
129283
129402
129520
129638
129755
129874
129992
130108
130222
130334
130447
130560
130673
130784
130900
131015
131132
131250
131366
131480
131596
131711
131827
131944
132060
132176
132292
132405
132521
132636
132755
132874
132992
133108
133224
133337
133452
133567
133678
133793
133908
134022
134138
134254
134368
134483
134596
134707
134823
134937
135053
135167
135283
135402
135518
135635
135751
135865
135982
136101
136214
136328
136442
136555
136671
136788
136904
137020
137135
137249
137365
137479
137595
137712
137829
137947
138066
138182
138301
138417
138534
138649
138761
138878
138994
139108
139223
139341
139457
139574
139691
139804
139920
140035
140148
140265
140380
140492
140608
140723
140836
140953
141070
141182
141298
141414
141529
141646
141765
141882
141998
142112
142224
142340
142456
142571
142690
142807
142921
143039
143153
143269
143387
143501
143616
143734
143851
143967
144086
144203
144319
144439
144557
144673
144789
144903
145018
145134
145248
145370
145486
145601
145716
145829
145946
146063
146180
146299
146413
146532
146649
146765
146882
146997
147111
147227
147342
147456
147573
147689
147803
147919
148038
148156
148274
148395
148510
148626
148744
148860
148978
149099
149217
149336
149453
149570
149683
149799
149916
150034
150157
150277
150397
150513
150629
150744
150858
150974
151093
151210
151328
151449
151568
151687
151803
151920
152040
152158
152279
152400
152521
152642
152765
152886
153006
153125
153245
153365
153483
153602
153719
153835
153952
154071
154190
154308
154427
154548
154669
154794
154914
155035
155156
155275
155395
155514
155633
155750
155868
155987
156105
156222
156339
156455
156573
156691
156807
156923
157040
157158
157275
157390
157507
157623
157739
157854
157968
158083
158200
158317
158434
158549
158665
158780
158896
159013
159129
159246
159363
159483
159602
159720
159839
159955
160072
160188
160303
160420
160535
160650
160767
160883
161000
161117
161234
161351
161466
161581
161697
161813
161932
162050
162167
162285
162403
162519
162634
162749
162863
162976
163093
163208
163323
163438
163551
163661
163777
163890
164003
164118
164232
164345
164462
164578
164692
164809
164924
165039
165155
165272
165385
165501
165616
165729
165850
165967
166081
166196
166308
166427
166544
166661
166778
166894
167010
167127
167243
167356
167470
167584
167696
167811
167927
168040
168154
168270
168383
168498
168615
168730
168844
168960
169073
169185
169300
169415
169528
169643
169760
169874
169990
170108
170224
170338
170454
170568
170680
170796
170911
171025
171142
171259
171372
171487
171604
171716
171829
171945
172060
172173
172289
172406
172520
172635
172750
172862
172973
173091
173211
173327
173441
173556
173672
173784
173900
174015
174129
174243
174360
174477
174589
174703
174819
174934
175048
175163
175277
175389
175503
175618
175732
175849
175967
176083
176198
176314
176428
176542
176661
176777
176892
177008
177128
177244
177361
177479
177596
177711
177827
177944
178062
178178
178295
178412
178529
178645
178762
178878
178995
179109
179224
179340
179457
179575
179691
179807
179924
180040
180156
180272
180386
180497
180607
180720
180832
180946
181063
181180
181300
181423
181544
181660
181772
181885
181997
182108
182223
182338
182451
182566
182679
182799
182912
183026
183140
183252
183370
183483
183598
183713
183828
183943
184055
184169
184280
184393
184505
184620
184739
184857
184975
185094
185213
185327
185442
185557
185671
185787
185904
186017
186131
186245
186359
186472
186587
186700
186813
186927
187042
187155
187269
187385
187498
187614
187731
187845
187959
188073
188185
188299
188415
188529
188643
188758
188870
188985
189101
189215
189330
189446
189560
189674
189790
189903
190018
190133
190245
190359
190473
190585
190700
190813
190926
191044
191161
191280
191402
191522
191639
191758
191877
191994
192114
192234
192352
192469
192588
192708
192824
192941
193057
193170
193287
193404
193520
193638
193755
193869
193985
194102
194216
194328
194443
194556
194668
194783
194897
195012
195130
195251
195370
195492
195616
195733
195852
195969
196085
196208
196323
196437
196556
196679
196794
196911
197027
197140
197254
197368
197481
197594
197708
197820
197933
198046
198158
198274
198390
198501
198614
198728
198840
198954
199070
199183
199298
199414
199528
199644
199760
199875
199991
200111
200229
200345
200463
200581
200696
200812
200932
201050
201167
201285
201404
201522
201636
201751
201867
201980
202095
202213
202328
202443
202560
202676
202789
202904
203020
203134
203250
203369
203485
203600
203718
203837
203952
204067
204184
204298
204413
204531
204646
204760
204874
204987
205099
205213
205329
205443
205558
205673
205787
205899
206015
206128
206238
206352
206466
206579
206694
206807
206926
207041
207157
207276
207398
207514
207631
207750
207863
207977
208093
208207
208321
208436
208553
208666
208780
208895
209007
209121
209238
209351
209464
209579
209697
209814
209932
210051
210167
210281
210398
210512
210624
210739
210854
210966
211080
211196
211309
211424
211540
211653
211766
211879
211990
212103
212218
212330
212444
212558
212670
212783
212900
213015
213131
213249
213362
213478
213593
213704
213815
213929
214041
214153
214267
214378
214493
214605
214719
214834
214946
215063
215175
215288
215398
215510
215621
215731
215841
215951
216059
216169
216278
216385
216495
216603
216711
216821
216929
217042
217152
217264
217376
217488
217602
217717
217828
217942
218058
218172
218284
218397
218512
218625
218739
218855
218968
219081
219197
219311
219423
219538
219651
219763
219877
219993
220106
220220
220334
220448
220560
220674
220789
220900
221014
221129
221242
221354
221468
221582
221694
221812
221925
222040
222157
222269
222382
222495
222606
222719
222835
222950
223062
223175
223285
223399
223516
223630
223749
223868
223984
224100
224219
224337
224454
224568
224684
224800
224917
225033
225148
225264
225379
225492
225606
225720
225833
225947
226062
226176
226292
226408
226522
226638
226755
226869
226985
227100
227212
227325
227438
227549
227670
227784
227897
228011
228121
228233
228346
228458
228571
228685
228798
228909
229020
229133
229243
229355
229469
229582
229694
229808
229922
230033
230147
230261
230373
230486
230602
230716
230829
230943
231056
231168
231281
231396
231507
231621
231737
231850
231964
232081
232197
232310
232425
232541
232654
232768
232884
232999
233112
233225
233340
233452
233565
233680
233793
233907
234021
234137
234248
234361
234476
234589
234704
234820
234934
235048
235163
235279
235391
235507
235618
235732
235848
235960
236073
236189
236301
236413
236526
236639
236750
236864
236976
237086
237199
237311
237425
237539
237653
237766
237880
237992
238105
238219
238330
238443
238557
238670
238784
238901
239013
239132
239244
239356
239475
239592
239704
239816
239930
240044
240161
240276
240396
240515
240635
240752
240869
240984
241099
241214
241326
241439
241552
241666
241778
241891
242007
242121
242233
242347
242462
242575
242687
242800
242914
243027
243140
243253
243366
243476
243589
243702
243815
243927
244041
244156
244267
244381
244495
244609
244721
244835
244949
245065
245177
245290
245406
245520
245633
245746
245860
245973
246083
246196
246309
246419
246531
246645
246758
246869
246982
247096
247207
247319
247432
247543
247654
247767
247881
247992
248106
248218
248328
248443
248557
248670
248758
248873
248991
249105
249220
249335
249450
249564
249676
249785
249895
250007
250117
250229
250341
250452
250561
250673
250784
250895
251008
251120
251231
251345
251456
251566
251679
251792
251902
252015
252129
252240
252354
252466
252576
252689
252800
252911
253026
253137
253255
253367
253480
253594
253705
253818
253931
254044
254155
254269
254383
254495
254608
254722
254836
254946
255058
255172
255284
255395
255508
255622
255734
255845
255959
256070
256180
256294
256406
256517
256629
256742
256854
256967
257082
257195
257306
257419
257531
257641
257754
257869
257982
258093
258208
258321
258433
258546
258662
258776
258888
259001
259115
259226
259340
259454
259566
259679
259793
259902
260013
260126
260239
260351
260466
260582
260696
260808
260921
261036
261149
261260
261374
261491
261602
261715
261829
261941
262051
262163
262277
262391
262505
262624
262742
262859
262975
263090
263205
263320
263435
263549
263663
263777
263889
264002
264114
264227
264340
264450
264566
264676
264788
264902
265016
265127
265241
265350
265462
265573
265680
265791
265899
266008
266117
266225
266334
266443
266550
266659
266766
266875
266983
267092
267200
267308
267417
267524
267633
267741
267847
267955
268064
268171
268278
268386
268493
268599
268707
268815
268923
269030
269136
269244
269351
269458
269568
269674
269786
269897
270004
270114
270225
270335
270443
270553
270665
270775
270885
270996
271110
271222
271332
271445
271562
271679
271793
271907
272022
272140
272257
272369
272483
272599
272712
272823
272936
273050
273163
273274
273386
273500
273610
273722
273836
273948
274059
274170
274283
274395
274506
274619
274732
274844
274958
275073
275187
275301
275417
275533
275644
275757
275870
275980
276091
276205
276316
276427
276541
276652
276762
276875
276985
277097
277210
277320
277433
277546
277655
277768
277882
277993
278104
278216
278327
278437
278549
278659
278770
278883
278996
279106
279218
279331
279442
279555
279672
279785
279897
280012
280126
280239
280354
280469
280581
280695
280810
280924
281037
281151
281264
281376
281491
281604
281715
281828
281942
282054
282169
282283
282397
282516
282634
282751
282869
282987
283100
283214
283330
283443
283555
283669
283781
283893
284008
284122
284233
284347
284458
284569
284682
284793
284904
285018
285131
285246
285363
285475
285590
285705
285818
285930
286045
286158
286274
286389
286501
286616
286731
286843
286956
287070
287182
287301
287413
287526
287640
287752
287867
287982
288095
288208
288323
288437
288549
288662
288778
288891
289004
289119
289232
289343
289457
289570
289681
289795
289910
290023
290135
290249
290364
290475
290590
290704
290816
290930
291046
291158
291270
291386
291500
291613
291728
291845
291960
292073
292189
292302
292414
292527
292639
292748
292860
292973
293084
293197
293309
293420
293533
293647
293759
293870
293983
294095
294206
294320
294435
294547
294661
294776
294889
295003
295119
295234
295345
295457
295571
295684
295797
295912
296025
296137
296251
296365
296477
296589
296703
296817
296931
297046
297162
297276
297389
297503
297619
297734
297849
297964
298077
298187
298301
298415
298528
298644
298759
298873
298986
299102
299215
299326
299435
299548
