Mammal: mouse
Fs: 1000
Integration: ECG

47
139
231
322
412
501
590
679
769
859
948
1036
1126
1216
1306
1395
1484
1573
1661
1749
1838
1927
2015
2104
2192
2281
2369
2459
2547
2635
2724
2811
2900
2988
3076
3163
3251
3339
3427
3515
3603
3691
3779
3867
3954
4042
4130
4217
4305
4393
4480
4568
4655
4743
4831
4918
5006
5094
5181
5268
5356
5443
5531
5618
5706
5793
5880
5968
6055
6142
6229
6317
6404
6492
6578
6665
6753
6839
6927
7019
7112
7203
7293
7384
7474
7561
7649
7737
7825
7912
8000
8089
8177
8265
8353
8442
8530
8618
8707
8794
8882
8969
9058
9145
9233
9320
9408
9496
9583
9672
9759
9847
9934
10022
10109
10196
10284
10371
10459
10546
10633
10721
10809
10897
10985
11073
11159
11247
11337
11425
11513
11601
11689
11777
11865
11952
12040
12128
12216
12303
12391
12479
12566
12655
12742
12830
12918
13006
13094
13182
13270
13358
13446
13534
13622
13710
13798
13886
13974
14062
14151
14238
14327
14417
14506
14595
14683
14772
14862
14951
15040
15129
15217
15306
15396
15485
15574
15663
15752
15841
15930
16020
16108
16198
16289
16381
16472
16563
16653
16743
16833
16922
17012
17103
17192
17282
17372
17462
17552
17641
17732
17822
17913
18003
18093
18183
18274
18364
18454
18545
18635
18726
18817
18906
18997
19087
19177
19268
19358
19448
19539
19629
19719
19810
19899
19990
20081
20170
20260
20351
20441
20532
20623
20714
20804
20895
20986
21076
21167
21259
21350
21442
21534
21624
21715
21806
21897
21989
22079
22170
22263
22354
22446
22537
22628
22720
22810
22901
22993
23084
23176
23267
23359
23451
23545
23639
23732
23825
23918
24010
24102
24195
24286
24378
24470
24561
24654
24746
24837
24929
25022
25114
25205
25298
25390
25481
25574
25666
25757
25849
25942
26034
26127
26220
26312
26404
26497
26590
26681
26773
26865
26958
27049
27141
27233
27324
27416
27508
27600
27692
27783
27875
27966
28057
28149
28241
28333
28423
28515
28607
28697
28789
28880
28971
29062
29153
29245
29336
29427
29519
29609
29700
29792
29883
29975
30065
30156
30246
30338
30428
30520
30610
30701
30791
30882
30973
31063
31154
31245
31335
31425
31516
31608
31699
31791
31883
31974
32066
32158
32249
32339
32431
32523
32613
32704
32796
32887
32977
33069
33161
33251
33343
33435
33528
33620
33712
33805
33897
33991
34085
34178
34272
34366
34460
34553
34646
34739
34831
34924
35018
35111
35205
35299
35392
35484
35577
35671
35763
35857
35950
36044
36137
36231
36324
36417
36511
36605
36697
36791
36885
36979
37073
37168
37261
37355
37450
37544
37637
37731
37825
37917
38012
38106
38200
38294
38388
38482
38575
38668
38761
38855
38947
39040
39133
39226
39318
39410
39503
39596
39689
39781
39874
39966
40059
40151
40243
40335
40426
40518
40609
40701
40793
40884
40976
41069
41159
41250
41343
41438
41533
41628
41721
41815
41908
42000
42093
42186
42278
42371
42463
42555
42648
42740
42831
42924
43016
43107
43199
43291
43382
43474
43566
43656
43749
43842
43933
44025
44117
44208
44300
44393
44484
44576
44669
44762
44855
44949
45042
45134
45229
45323
45415
45509
45603
45696
45788
45882
45974
46067
46160
46253
46346
46441
46537
46630
46725
46820
46914
47006
47099
47191
47285
47378
47472
47565
47660
47754
47849
47943
48038
48133
48228
48323
48417
48510
48604
48697
48790
48883
48976
49069
49162
49255
49350
49444
49537
49631
49725
49819
49913
50007
50099
50193
50286
50380
50473
50566
50659
50751
50844
50937
51028
51121
51215
51308
51402
51495
51587
51680
51773
51864
51956
52049
52141
52232
52324
52416
52507
52601
52695
52788
52881
52974
53065
53157
53250
53343
53435
53528
53620
53711
53805
53898
53990
54085
54180
54274
54370
54467
54564
54660
54757
54852
54948
55044
55139
55234
55328
55426
55523
55620
55718
55816
55913
56011
56107
56203
56300
56398
56495
56593
56689
56785
56878
56973
57068
57163
57258
57355
57450
57545
57640
57735
57830
57926
58021
58115
58213
58309
58405
58498
58593
58687
58781
58874
58968
59061
59156
59251
59345
59438
59532
59627
59720
59815
59910
60006
60101
60197
60292
60385
60479
60573
60667
60762
60858
60954
61051
61149
61247
61344
61442
61539
61636
61734
61831
61927
62023
62119
62214
62308
62402
62497
62593
62688
62784
62880
62976
63073
63168
63264
63359
63454
63550
63645
63741
63837
63934
64030
64125
64220
64314
64408
64501
64595
64690
64783
64876
64970
65064
65158
65251
65344
65436
65529
65622
65716
65810
65905
65998
66092
66185
66278
66372
66464
66558
66652
66746
66839
66931
67024
67115
67207
67299
67390
67483
67574
67667
67760
67853
67945
68038
68131
68224
68315
68407
68499
68590
68685
68781
68877
68975
69073
69171
69268
69365
69461
69558
69656
69754
69853
69950
70048
70147
70246
70347
70448
70549
70650
70750
70847
70943
71039
71134
71230
71326
71424
71522
71620
71717
71816
71915
72015
72116
72216
72316
72417
72518
72618
72720
72821
72921
73022
73124
73225
73326
73428
73529
73630
73731
73832
73930
74030
74128
74230
74330
74430
74527
74626
74726
74826
74926
75027
75127
75227
75327
75427
75527
75628
75729
75830
75930
76031
76132
76233
76333
76434
76534
76635
76735
76835
76937
77038
77138
77241
77342
77446
77548
77649
77750
77850
77953
78055
78155
78256
78355
78453
78552
78653
78755
78855
78954
79053
79153
79253
79357
79457
79559
79662
79764
79868
79973
80079
80185
80291
80395
80497
80595
80693
80793
80893
80995
81093
81197
81299
81402
81506
81609
81713
81818
81921
82026
82132
82239
82346
82453
82559
82663
82767
82871
82977
83084
83192
83302
83412
83522
83631
83739
83846
83954
84062
84167
84276
84379
84490
84599
84707
84817
84928
85040
85155
85268
85379
85485
85585
85689
85793
85905
86014
86126
86237
86347
86455
86568
86679
86792
86906
87023
87139
87251
87363
87467
87575
87682
87788
87898
88004
88115
88223
88334
88429
88508
88582
88729
88893
89012
89137
89246
89365
89479
89589
89701
89812
89924
90035
90148
90261
90374
90480
90597
90711
90822
90938
91055
91169
91281
91394
91513
91623
91744
91861
91980
92097
92207
92324
92439
92556
92672
92787
92903
93023
93146
93267
93379
93492
93596
93714
93829
93946
94062
94172
94290
94408
94535
94658
94781
94905
95021
95138
95248
95367
95486
95607
95730
95851
95975
96091
96204
96315
96426
96538
96644
96762
96871
96983
97095
97206
97318
97433
97550
97658
97778
97889
98008
98120
98232
98342
98452
98559
98670
98780
98892
99000
99111
99222
99336
99447
99559
99673
99784
99907
100025
100136
100247
100358
100466
100574
100676
100778
100917
101024
101143
101258
101400
101539
101671
101797
101916
102031
102143
102254
102366
102478
102587
102695
102800
103848
103960
104068
104179
104290
104401
104506
104614
104722
104833
104938
105046
105161
105272
105386
105501
105617
105732
105845
105955
106062
106170
106283
106392
106496
106603
106709
106817
106926
107033
107138
107245
107356
107465
107571
107673
107776
107889
108002
108125
108253
108384
108486
108607
108711
108829
108945
109041
109146
109247
109344
109442
109539
109640
109734
109833
109932
110033
110139
110240
110342
110443
110543
110643
110741
110843
110947
111053
111156
111254
111358
111460
111575
111687
111800
111910
112035
112143
112256
112374
112482
112590
112691
112793
112898
113001
113105
113206
113306
113403
113499
113598
113695
113792
113890
113987
114086
114182
114280
114378
114476
114577
114681
114784
114892
114992
115094
115198
115301
115405
115507
115609
115709
115810
115911
116008
116108
116207
116306
116400
116497
116595
116692
116796
116902
117005
117111
117217
117323
117429
117533
117635
117741
117846
117949
118049
118150
118247
118342
118440
118537
118633
118729
118826
118923
119020
119119
119217
119320
119421
119522
119620
119719
119816
119917
120015
120117
120217
120321
120421
120522
120622
120721
120821
120919
121016
121113
121211
121307
121405
121504
121603
121703
121806
121908
122013
122117
122219
122322
122425
122529
122637
122741
122847
122950
123051
123153
123254
123352
123448
123545
123640
123737
123832
123927
124023
124120
124218
124314
124413
124513
124613
124712
124811
124910
125009
125111
125212
125313
125414
125511
125608
125706
125800
125895
125988
126079
126171
126264
126356
126450
126544
126641
126738
126834
126929
127024
127121
127218
127317
127416
127513
127608
127706
127807
127908
128012
128113
128212
128307
128401
128493
128587
128679
128769
128860
128950
129041
129131
129222
129313
129405
129499
129593
129687
129781
129875
129971
130065
130161
130257
130353
130448
130542
130636
130729
130821
130912
131001
131090
131180
131271
131360
131450
131539
131630
131720
131810
131899
131991
132081
132174
132267
132358
132450
132541
132631
132722
132815
132907
132999
133091
133181
133271
133362
133454
133544
133634
133726
133818
133910
134000
134091
134184
134279
134372
134465
134559
134655
134753
134851
134949
135052
135161
135271
135380
135484
135588
135692
135793
135892
135990
136091
136190
136288
136384
136484
136582
136683
136782
136879
136977
137073
137172
137270
137367
137465
137565
137668
137773
137875
137976
138078
138176
138271
138365
138460
138556
138651
138745
138839
138931
139022
139114
139206
139299
139394
139490
139585
139681
139780
139879
139983
140091
140201
140309
140414
140521
140631
140728
140862
141047
141195
141302
141403
141498
141594
141690
141784
141880
141976
142070
142167
142264
142366
142465
142570
142672
142774
142875
142971
143069
143166
143264
143366
143466
143566
143666
143762
143859
143956
144055
144156
144253
144354
144450
144551
144648
144743
144836
144934
145032
145129
145226
145321
145422
145523
145625
145727
145826
145924
146021
146120
146219
146317
146413
146511
146607
146706
146804
146904
147002
147103
147202
147310
147409
147508
147613
147715
147823
147931
148030
148138
148237
148329
148428
148524
148619
148712
148998
149095
149181
149277
149371
149467
149568
149657
149749
149848
149944
150046
150146
150239
150339
150445
150545
150647
150747
150853
150956
151056
151159
151256
151355
151452
151549
151642
151736
152107
152200
152297
152394
152490
152590
152681
152777
152874
152971
153064
153161
153261
153357
153457
153551
153646
153742
153837
153939
154031
154123
154222
154317
154413
154502
154600
154696
154791
154887
154985
155084
155179
155284
155380
155472
155571
155669
155765
155857
155956
156045
156140
156234
156326
156419
156511
156603
156695
156789
156882
156974
157065
157157
157251
157345
157440
157534
157630
157724
157819
157915
158009
158106
158201
158299
158394
158491
158588
158682
158777
158871
158966
159061
159154
159248
159341
159434
159527
159620
159711
159804
159898
159991
160086
160181
160275
160371
160467
160563
160657
160754
160853
160950
161049
161148
161246
161344
161443
161543
161642
161740
161836
161933
162030
162122
162215
162311
162407
162502
162597
162693
162789
162884
162976
163071
163167
163263
163359
163456
163551
163649
163743
163840
163935
164032
164130
164226
164324
164425
164524
164624
164716
164823
164931
165046
165164
165276
165384
165492
165599
165709
165817
165923
166030
166135
166238
166342
166446
166551
166653
166754
166857
166957
167058
167158
167260
167362
167462
167559
167657
167754
167851
167952
168050
168150
168253
168353
168455
168559
168660
168762
168864
168964
169062
169162
169262
169363
169462
169560
169658
169757
169857
169956
170054
170151
170250
170348
170443
170538
170635
170733
170832
170930
171031
171133
171238
171340
171442
171547
171652
171754
171852
171961
172062
172167
172263
172362
172458
172556
172655
172751
172850
172949
173047
173140
173245
173341
173443
173541
174040
174140
174242
174342
174438
174534
174640
174736
174841
174947
175048
175150
175249
175351
175452
175554
175653
175746
175848
175946
176047
176145
176252
176353
176460
176557
176664
176768
176869
176976
177078
177183
177285
177378
177464
177577
177690
177801
177903
178011
178116
178217
178319
178418
178514
178611
178710
178808
178909
179010
179114
179217
179322
179423
179527
179628
179734
179835
179935
180036
180133
180232
180332
180434
180535
180638
180739
180842
180943
181043
181148
181251
181354
181458
181560
181665
181768
181871
181973
182076
182180
182284
182390
182494
182600
182705
182810
182914
183017
183120
183221
183324
183425
183529
183631
183734
183835
183936
184037
184137
184240
184342
184445
184546
184649
184752
184852
184954
185053
185154
185254
185359
185461
185565
185668
185773
185876
185981
186085
186190
186294
186395
186499
186600
186705
186807
186910
187010
187112
187212
187313
187413
187514
187615
187716
187816
187917
188018
188119
188218
188317
188417
188516
188613
188713
188811
188909
189004
189101
189196
189293
189388
189486
189584
189682
189783
189883
189983
190083
190182
190284
190386
190487
190588
190688
190790
190892
190994
191095
191198
191300
191402
191504
191606
191710
191811
191913
192014
192116
192217
192319
192421
192523
192626
192725
192827
192928
193031
193131
193232
193333
193434
193536
193637
193740
193841
193944
194046
194148
194249
194351
194453
194555
194659
194761
194864
194964
195066
195166
195266
195365
195466
195567
195668
195768
195870
195970
196071
196170
196272
196373
196475
196577
196678
196779
196880
196981
197082
197186
197288
197391
197495
197598
197699
197802
197903
198006
198109
198212
198316
198418
198521
198624
198727
198829
198933
199035
199139
199240
199342
199442
199546
199647
199749
199849
199952
200052
200155
200255
200358
200460
200563
200666
200771
200875
200980
201085
201190
201296
201398
201499
201600
201700
201799
201899
201999
202100
202200
202301
202401
202503
202606
202709
202813
202914
203017
203119
203221
203325
203428
203533
203635
203738
203840
203945
204048
204152
204256
204360
204464
204568
204674
204778
204881
204984
205087
205191
205293
205396
205497
205600
205701
205806
205910
206016
206119
206225
206328
206434
206537
206642
206745
206850
206953
207056
207159
207262
207365
207467
207570
207672
207775
207876
207979
208079
208180
208282
208386
208489
208594
208698
208803
208907
209013
209117
209222
209326
209432
209536
209640
209743
209847
209954
210058
210163
210266
210370
210472
210575
210677
210781
210883
210986
211088
211193
211297
211402
211504
211607
211710
211814
211918
212021
212125
212227
212331
212432
212537
212639
212745
212849
212955
213059
213164
213268
213372
213477
213581
213685
213786
213892
213995
214101
214204
214309
214412
214518
214622
214728
214833
214939
215043
215148
215250
215352
215456
215558
215662
215763
215944
216046
216148
216250
216354
216456
216560
216661
216764
216865
216970
217074
217178
217282
217387
217491
217597
217700
217804
217908
218014
218116
218219
218322
218426
218529
218633
218736
218838
218941
219043
219146
219247
219352
219454
219558
219659
219764
219866
219970
220071
220174
220275
220378
220479
220582
220683
220787
220889
220992
221094
221196
221297
221399
221501
221604
221706
221810
221912
222014
222120
222223
222326
222427
222531
222633
222737
222840
222945
223048
223153
223257
223362
223466
223570
223673
223777
223880
223983
224086
224188
224292
224394
224498
224600
224703
224804
224908
225010
225116
225218
225324
225426
225531
225632
225736
225838
225941
226045
226146
226250
226352
226456
226559
226664
226766
226870
226973
227077
227181
227285
227389
227491
227595
227697
227801
227903
228006
228108
228212
228315
228419
228521
228624
228725
228828
228928
229029
229131
229231
229335
229438
229541
229642
229744
229845
229948
230048
230150
230250
230349
230449
230547
230647
230745
230844
230943
231041
231140
231240
231340
231441
231540
231641
231739
231840
231938
232037
232137
232235
232334
232434
232535
232632
232732
232830
232930
233029
233128
233228
233326
233427
233527
233626
233728
233828
233931
234032
234133
234236
234337
234441
234542
234646
234749
234851
234955
235056
235161
235263
235369
235471
235574
235676
235780
235881
235984
236086
236189
236294
236397
236503
236604
236709
236810
236915
237019
237125
237230
237332
237438
237540
237645
237747
237852
237955
238058
238162
238266
238371
238474
238579
238679
238785
238888
238994
239096
239200
239303
239404
239508
239609
239715
239816
239920
240020
240122
240224
240324
240424
240522
240619
240717
240813
240910
241008
241104
241201
241298
241395
241493
241590
241681
241787
241889
241992
242096
242199
242300
242403
242504
242605
242703
242803
242904
243003
243106
243207
243309
243412
243513
243617
243719
243823
243927
244031
244135
244239
244342
244445
244549
244651
244756
244859
244963
245064
245168
245269
245373
245474
245580
245683
245788
245891
245995
246098
246204
246308
246413
246516
246621
246723
246826
246926
247028
247130
247234
247336
247440
247544
247647
247750
247852
247954
248054
248153
248254
248355
248457
248558
248661
248762
248867
248969
249074
249175
249279
249381
249485
249587
249691
249792
249894
249995
250098
250201
250304
250405
250509
250610
250714
250815
250920
251022
251128
251231
251334
251436
251541
251643
251748
251852
251956
252057
252161
252262
252366
252467
252570
252672
252775
252877
252981
253083
253186
253289
253392
253493
253595
253696
253799
253902
254006
254109
254212
254314
254418
254519
254621
254722
254826
254928
255031
255133
255237
255340
255443
255544
255647
255748
255850
255952
256055
256157
256261
256362
256466
256568
256673
256775
256879
256981
257087
257191
257296
257399
257504
257607
257712
257816
257921
258024
258128
258229
258334
258437
258542
258644
258750
258851
258955
259057
259161
259264
259369
259471
259574
259677
259782
259887
259993
260097
260204
260307
260413
260518
260624
260729
260834
260937
261039
261142
261244
261348
261449
261553
261654
261758
261859
261963
262065
262168
262271
262376
262479
262585
262690
262796
262900
263005
263107
263211
263314
263418
263521
263625
263728
263833
263936
264040
264144
264247
264351
264455
264559
264661
264764
264867
264970
265071
265175
265277
265382
265485
265589
265692
265795
265898
266000
266102
266203
266303
266404
266504
266606
266707
266808
266911
267013
267118
267221
267325
267427
267532
267634
267739
267842
267946
268049
268151
268255
268356
268460
268562
268665
268766
268869
268970
269073
269173
269275
269374
269476
269576
269678
269779
269882
269984
270087
270189
270293
270396
270499
270602
270703
270807
270909
271013
271115
271220
271322
271426
271526
271628
271728
271830
271932
272031
272131
272230
272330
272430
272531
272630
272732
272832
272936
273036
273140
273243
273346
273448
273551
273654
273758
273860
273962
274065
274168
274272
274374
274477
274579
274682
274783
274887
274989
275094
275196
275301
275404
275508
275613
275716
275821
275924
276029
276132
276237
276340
276446
276549
276654
276757
276862
276966
277070
277174
277278
277381
277482
277586
277688
277791
277893
277997
278100
278204
278308
278411
278514
278615
278717
278819
278921
279022
279124
279226
279329
279431
279534
279637
279739
279842
279944
280048
280151
280255
280358
280460
280564
280666
280770
280873
280975
281078
281178
281280
281380
281482
281583
281684
281784
281883
281983
282082
282183
282282
282384
282484
282586
282687
282787
282888
282988
283089
283190
283290
283390
283491
283591
283692
283792
283894
283994
284095
284197
284296
284398
284498
284600
284702
284803
284907
285008
285111
285215
285317
285422
285525
285629
285732
285834
285937
286039
286142
286245
286347
286451
286554
286657
286760
286862
286964
287065
287165
287267
287368
287469
287571
287671
287772
287873
287974
288075
288177
288277
288378
288478
288579
288682
288789
288894
288999
289103
289208
289312
289415
289518
289622
289724
289827
289929
290032
290133