Mammal: mouse
Fs: 1000
Integration: ECG

88
201
320
450
571
688
811
940
1054
1156
1255
1362
1474
1587
1692
1804
1919
2032
2147
2272
2393
2508
2615
2720
2823
2924
3025
3133
3247
3365
3493
3610
3728
3847
3967
4097
4216
4337
4443
4549
4654
4759
4862
4963
5059
5158
5260
5372
5489
5605
5724
5844
5967
6089
6209
6334
6454
6583
6705
6834
6964
7090
7215
7346
7468
7576
7680
7801
7929
8048
8151
8280
8394
8508
8624
8736
8850
8966
9076
9189
9302
9418
9536
9654
9775
9899
10027
10158
10293
10420
10550
10672
10793
10931
11051
11161
11266
11376
11481
11587
11706
11835
11955
12075
12196
12324
12442
12558
12684
12795
12900
13005
13107
13206
13302
13400
13502
13603
13701
13799
13896
13999
14112
14234
14348
14469
14582
14698
14809
14915
15020
15124
15230
15344
15456
15573
15688
15810
15928
16039
16144
16253
16379
16494
16606
16715
16824
16926
17025
17125
17227
17338
17455
17570
17687
17799
17906
18009
18108
18207
18305
18409
18525
18643
18759
18878
18997
19114
19230
19339
19447
19553
19654
19754
19864
19984
20093
20194
20292
20388
20483
20578
20671
20764
20855
20946
21035
21123
21214
21305
21395
21485
21574
21662
21749
21836
21923
22010
22096
22183
22269
22355
22441
22530
22621
22716
22808
22899
22989
23076
23165
23253
23340
23427
23514
23601
23687
23772
23858
23945
24034
24125
24222
24323
24424
24526
24631
24730
24827
24925
25021
25122
25220
25313
25405
25500
25596
25693
25788
25884
25980
26073
26163
26256
26354
26448
26546
26650
26756
26859
26961
27061
27163
27268
27375
27476
27578
27680
27791
27896
27997
28100
28202
28313
28427
28545
28655
28765
28879
28999
29114
29233
29361
29482
29590
29687
29779
29870
29960
30050
30140
30231
30323
30418
30516
30631
30737
30844
30953
31061
31169
31275
31388
31502
31615
31725
31834
31957
32076
32198
32312
32426
32553
32673
32789
32893
32996
33103
33219
33334
33450
33575
33699
33811
33925
34045
34158
34268
34372
34475
34589
34696
34805
34918
35033
35152
35264
35368
35469
35587
35696
35796
35897
36004
36124
36234
36344
36469
36580
36693
36810
36913
37010
37107
37203
37299
37394
37502
37627
37746
37863
37991
38118
38241
38376
38499
38626
38752
38875
38993
39115
39228
39349
39459
39562
39665
39767
39866
39963
40061
40162
40282
40412
40540
40668
40794
40908
41014
41133
41254
41376
41508
41632
41747
41862
41982
42109
42232
42343
42444
42542
42641
42745
42844
42942
43040
43140
43241
43342
43462
43580
43699
43808
43925
44042
44152
44257
44364
44469
44579
44690
44798
44907
45011
45119
45224
45323
45419
45513
45608
45701
45795
45887
45987
46091
46208
46322
46436
46550
46666
46783
46899
47006
47128
47244
47356
47465
47575
47692
47808
47928
48038
48136
48238
48345
48448
48546
48642
48739
48843
48957
49072
49184
49294
49406
49520
49638
49751
49858
49959
50057
50156
50259
50363
50468
50575
50674
50770
50870
50967
51063
51159
51255
51352
51448
51550
51669
51784
51898
52017
52129
52252
52378
52502
52620
52727
52847
52970
53101
53215
53333
53440
53553
53674
53800
53924
54052
54161
54282
54393
54503
54619
54736
54845
54948
55055
55174
55299
55413
55518
55623
55730
55841
55946
56066
56181
56307
56418
56539
56655
56779
56896
57001
57112
57225
57349
57462
57569
57679
57794
57914
58034
58159
58277
58395
58517
58642
58767
58896
59028
59168
59307
59446
59582
59722
59856
59993
60128
60265
60402
60544
60676
60798
60929
61054
61186
61317
61439
61555
61670
61786
61899
62027
62150
62263
62370
62472
62571
62669
62770
62872
62978
63085
63209
63331
63459
63582
63709
63837
63959
64075
64188
64305
64422
64537
64650
64764
64873
64981
65084
65186
65284
65381
65477
65574
65671
65771
65876
65986
66107
66218
66327
66434
66541
66651
66758
66871
66992
67115
67232
67356
67480
67606
67735
67869
68005
68131
68261
68390
68523
68650
68783
68911
69031
69144
69253
69355
69454
69553
69652
69749
69848
69962
70096
70215
70336
70459
70577
70695
70817
70940
71064
71185
71306
71419
71525
71626
71724
71821
71917
72012
72107
72200
72293
72386
72478
72569
72661
72751
72841
72930
73019
73107
73197
73290
73385
73479
73572
73666
73762
73870
73984
74095
74200
74305
74409
74519
74632
74742
74851
74965
75073
75181
75286
75387
75494
75608
75719
75831
75946
76059
76168
76275
76390
76507
76628
76749
76860
76963
77067
77178
77292
77402
77509
77612
77715
77813
77909
78004
78098
78193
78288
78383
78478
78572
78667
78761
78854
78947
79039
79130
79224
79322
79426
79533
79640
79738
79833
79930
80026
80121
80218
80318
80420
80527
80637
80748
80867
80989
81109
81241
81376
81495
81609
81730
81868
81985
82106
82218
82336
82456
82578
82714
82828
82946
83069
83205
83325
83440
83556
83684
83819
83927
84027
84125
84222
84318
84414
84509
84605
84707
84824
84947
85073
85195
85316
85440
85557
85672
85795
85917
86039
86164
86284
86395
86497
86596
86694
86791
86888
86985
87082
87180
87277
87375
87473
87570
87667
87763
87859
87957
88060
88167
88275
88393
88515
88632
88749
88864
88972
89071
89169
89265
89361
89456
89554
89663
89774
89881
89990
90100
90215
90339
90464
90583
90705
90826
90941
91060
91181
91299
91416
91530
91636
91738
91840
91954
92065
92169
92274
92375
92475
92574
92673
92775
92879
92988
93104
93213
93320
93437
93550
93658
93764
93865
93966
94065
94165
94265
94363
94460
94559
94656
94752
94847
94944
95045
95145
95242
95344
95445
95542
95645
95744
95840
95936
96032
96127
96221
96313
96405
96499
96592
96686
96783
96882
96989
97105
97221
97338
97460
97576
97691
97794
97892
97997
98102
98205
98305
98405
98509
98619
98727
98827
98935
99044
99152
99267
99388
99522
99629
99728
99828
99932
100036
100144
100250
100355
100462
100568
100683
100794
100902
101010
101119
101227
101337
101453
101569
101675
101780
101889
101997
102110
102215
102317
102423
102528
102628
102732
102834
102938
103042
103142
103240
103336
103431
103525
103619
103715
103810
103905
104002
104103
104211
104323
104427
104528
104629
104730
104830
104929
105032
105132
105229
105326
105422
105516
105616
105721
105832
105933
106032
106139
106244
106347
106451
106561
106662
106758
106855
106952
107051
107149
107252
107352
107452
107554
107663
107770
107877
107984
108093
108204
108313
108415
108524
108641
108752
108858
108967
109079
109184
109282
109383
109491
109607
109717
109820
109921
110022
110129
110233
110332
110431
110528
110628
110728
110825
110924
111021
111118
111213
111307
111400
111493
111585
111676
111768
111859
111949
112039
112129
112218
112307
112399
112502
112602
112704
112806
112904
113005
113106
113208
113309
113410
113508
113605
113700
113798
113901
114006
114108
114211
114315
114416
114523
114626
114726
114827
114924
115024
115124
115233
115344
115459
115572
115691
115808
115914
116025
116132
116246
116367
116476
116585
116699
116802
116903
117004
117102
117197
117293
117389
117491
117598
117699
117809
117915
118026
118129
118239
118350
118463
118579
118691
118805
118912
119025
119144
119253
119368
119478
119591
119704
119813
119926
120044
120163
120277
120398
120518
120627
120737
120853
120962
121066
121177
121294
121412
121520
121623
121724
121828
121936
122040
122148
122255
122360
122468
122581
122690
122813
122937
123060
123181
123309
123440
123551
123654
123754
123855
123963
124082
124211
124337
124453
124580
124708
124839
124966
125092
125211
125321
125446
125556
125662
125767
125874
125990
126102
126209
126312
126420
126538
126650
126775
126894
127003
127110
127215
127318
127419
127521
127620
127726
127841
127951
128069
128188
128310
128429
128537
128649
128758
128865
128979
129084
129190
129310
129432
129544
129651
129758
129866
129975
130081
130181
130278
130373
130468
130562
130656
130750
130844
130938
131031
131124
131216
131309
131404
131505
131619
131730
131844
131960
132076
132194
132311
132410
132511
132607
132699
132792
132884
132974
133064
133153
133241
133330
133419
133508
133600
133691
133782
133873
133967
134060
134153
134245
134335
134424
134513
134603
134696
134792
134901
135003
135104
135199
135290
135381
135471
135560
135653
135753
135860
135972
136090
136208
136322
136436
136551
136663
136763
136857
136950
137041
137132
137225
137320
137414
137506
137598
137691
137782
137873
137967
138064
138157
138251
138344
138437
138537
138644
138756
138873
138992
139109
139225
139339
139452
139564
139664
139761
139859
139959
140075
140195
140312
140426
140531
140645
140756
140869
140989
141116
141241
141359
141472
141589
141704
141807
141908
142009
142116
142222
142338
142459
142574
142695
142812
142929
143049
143175
143287
143408
143523
143635
143756
143869
143977
144079
144180
144281
144381
144481
144587
144695
144819
144931
145051
145170
145287
145410
145520
145638
145754
145870
145986
146098
146205
146314
146420
146520
146620
146717
146813
146921
147033
147156
147274
147396
147511
147631
147742
147843
147940
148034
148127
148218
148309
148400
148490
148579
148667
148755
148843
148930
149017
149106
149199
149299
149407
149515
149623
149733
149831
149929
150032
150127
150223
150318
150408
150499
150592
150683
150773
150862
150951
151043
151144
151245
151345
151444
151543
151644
151742
151839
151934
152031
152129
152237
152340
152446
152560
152667
152777
152898
153026
153153
153273
153392
153510
153618
153725
153827
153925
154027
154130
154249
154359
154472
154590
154698
154815
154932
155041
155155
155272
155390
155519
155641
155764
155888
155998
156102
156204
156306
156421
156536
156645
156757
156864
156977
157107
157220
157343
157466
157587
157705
157831
157949
158053
158151
158247
158342
158435
158530
158623
158719
158829
158934
159050
159167
159278
159391
159499
159602
159708
159831
159953
160059
160159
160257
160354
160452
160547
160641
160735
160828
160921
161015
161111
161208
161304
161398
161492
161589
161702
161816
161939
162053
162153
162246
162343
162443
162561
162685
162813
162938
163044
163140
163232
163325
163418
163516
163627
163744
163856
163959
164057
164161
164273
164382
164487
164591
164696
164815
164938
165056
165169
165278
165390
165518
165632
165747
165863
165977
166082
166187
166295
166397
166495
166591
166685
166779
166872
166964
167055
167145
167235
167324
167412
167499
167586
167673
167760
167847
167933
168018
168104
168189
168274
168360
168446
168531
168618
168704
168791
168879
168975
169074
169170
169262
169354
169450
169543
169634
169725
169820
169910
170000
170091
170181
170271
170359
170445
170531
170617
170702
170788
170874
170961
171048
171134
171221
171310
171402
171497
171591
171686
171780
171874
171969
172066
172161
172254
172350
172443
172535
172627
172718
172809
172899
172987
173074
173160
173246
173333
173419
173504
173591
173677
173762
173848
173933
174019
174104
174190
174276
174362
174450
174538
174628
174716
174803
174890
174976
175062
175147
175234
175320
175405
175492
175578
175665
175756
175849
175946
176045
176143
176244
176343
176444
176547
176655
176762
176862
176964
177062
177166
177265
177366
177464
177558
177649
177738
177830
177926
178026
178131
178239
178344
178448
178553
178661
178770
178878
178981
179079
179175
179269
179363
179456
179549
179645
179741
179843
179948
180051
180159
180264
180368
180471
180573
180677
180784
180894
181003
181115
181226
181340
181443
181542
181643
181755
181863
181964
182061
182157
182255
182351
182450
182552
182653
182764
182872
182983
183096
183209
183322
183432
183538
183640
183740
183843
183954
184065
184181
184297
184410
184526
184643
184760
184880
184992
185095
185195
185293
185399
185517
185636
185755
185872
185988
186102
186214
186320
186425
186526
186625
186724
186821
186917
187012
187111
187211
187308
187408
187505
187601
187696
187801
187909
188018
188128
188246
188361
188476
188586
188694
188807
188925
189044
189167
189279
189395
189513
189631
189750
189866
189971
190069
190170
190268
190366
190470
190569
190674
190786
190899
191012
191126
191248
191371
191490
191605
191718
191838
191955
192068
192183
192303
192420
192530
192650
192760
192864
192965
193064
193169
193286
193403
193520
193640
193755
193865
193975
194079
194194
194302
194411
194515
194617
194719
194821
194919
195014
195109
195207
195310
195415
195527
195637
195755
195870
195971
196067
196160
196251
196340
196429
196517
196605
196693
196780
196867
196954
197041
197128
197216
197305
197394
197486
197593
197700
197807
197917
198030
198145
198248
198344
198441
198532
198623
198714
198804
198895
198985
199075
199164
199253
199350
199461
199567
199673
199778
199881
199979
200073
200169
200263
200355
200447
200537
200626
200715
200804
200893
200982
201070
201159
201247
201335
201423
201515
201610
201705
201803
201903
202003
202104
202207
202313
202418
202523
202630
202743
202851
202966
203082
203200
203322
203439
203558
203684
203807
203925
204044
204149
204254
204373
204493
204604
204709
204815
204917
205022
205130
205235
205345
205457
205570
205685
205796
205904
206016
206125
206229
206328
206425
206522
206623
206722
206822
206925
207027
207141
207262
207385
207506
207635
207762
207893
208027
208160
208292
208423
208557
208694
208828
208964
209078
209182
209281
209376
209469
209563
209657
209753
209848
209944
210042
210152
210268
210385
210504
210621
210738
210858
210975
211093
211217
211350
211476
211586
211685
211781
211888
212011
212124
212226
212325
212421
212516
212611
212704
212796
212888
212979
213070
213161
213251
213340
213428
213515
213607
213702
213802
213904
214009
214122
214238
214356
214468
214572
214674
214780
214895
215018
215134
215246
215366
215481
215596
215707
215813
215927
216047
216172
216299
216408
216507
216604
216698
216792
216887
216981
217074
217166
217259
217354
217453
217555
217670
217787
217903
218019
218136
218255
218370
218480
218584
218686
218788
218887
218983
219077
219170
219264
219356
219448
219539
219630
219722
219813
219902
219992
220080
220168
220259
220354
220447
220541
220637
220732
220823
220915
221010
221104
221197
221290
221384
221475
221566
221656
221745
221836
221933
222036
222148
222259
222360
222467
222573
222682
222790
222902
223013
223127
223248
223362
223475
223595
223706
223818
223918
224014
224106
224198
224291
224383
224476
224569
224662
224755
224849
224950
225044
225142
225241
225344
225444
225546
225654
225767
225884
225994
226102
226208
226321
226430
226544
226665
226792
226913
227027
227133
227239
227346
227448
227550
227658
227764
227865
227963
228058
228154
228256
228353
228449
228544
228640
228735
228830
228923
229016
229109
229207
229308
229410
229507
229601
229696
229790
229882
229977
230085
230191
230300
230407
230517
230632
230748
230878
230991
231119
231254
231384
231491
231594
231695
231796
231900
232014
232129
232242
232359
232474
232592
232704
232820
232932
233049
233162
233282
233404
233524
233631
233732
233829
233925
234020
234115
234219
234341
234454
234568
234682
234793
234903
235014
235128
235242
235359
235469
235569
235669
235767
235865
235963
236065
236165
236265
236364
236463
236571
236685
236795
236899
237003
237111
237232
237353
237466
237593
237722
237848
237980
238095
238197
238295
238390
238484
238579
238676
238777
238898
239011
239126
239240
239355
239473
239587
239702
239807
239914
240029
240148
240269
240405
240526
240667
240782
240882
240976
241069
241163
241257
241351
241446
241542
241637
241741
241853
241967
242085
242207
242326
242449
242573
242700
242812
242916
243015
243121
243225
243333
243441
243557
243672
243791
243919
244051
244179
244310
244441
244569
244697
244836
244959
245084
245201
245305
245405
245501
245597
245692
245787
245883
245980
246078
246176
246278
246399
246527
246655
246763
246866
246966
247067
247169
247272
247377
247482
247587
247715
247833
247953
248082
248210
248353
248500
248633
248790
248906
249005
249101
249195
249289
249383
249478
249575
249671
249768
249865
249966
250078
250201
250317
250440
250566
250698
250818
250944
251075
251201
251328
251464
251596
251731
251854
251983
252112
252225
252328
252429
252529
252633
252762
252894
253028
253163
253293
253417
253545
253659
253769
253872
253975
254073
254171
254270
254368
254466
254566
254674
254791
254915
255034
255146
255266
255392
255513
255634
255764
255893
256021
256145
256269
256386
256515
256637
256765
256895
257021
257149
257276
257398
257522
257654
257778
257897
258021
258146
258269
258380
258496
258630
258748
258864
258976
259083
259199
259315
259437
259564
259691
259820
259939
260047
260155
260269
260399
260514
260633
260769
260909
261048
261169
261286
261420
261535
261643
261759
261872
261978
262081
262194
262316
262444
262574
262694
262823
262945
263075
263194
263306
263417
263541
263669
263792
263922
264056
264196
264321
264450
264595
264742
264885
265001
265106
265206
265302
265399
265510
265616
265717
265818
265918
266026
266142
266280
266414
266531
266644
266761
266875
266989
267110
267222
267330
267436
267540
267642
267758
267879
267996
268111
268223
268349
268487
268612
268732
268845
268950
269052
269151
269247
269342
269437
269531
269625
269718
269812
269905
269999
270091
270185
270278
270371
270465
270579
270696
270811
270946
271076
271197
271321
271444
271563
271681
271794
271902
272011
272117
272220
272340
272455
272571
272688
272802
272916
273034
273153
273266
273369
273469
273569
273671
273771
273872
273980
274088
274199
274312
274431
274544
274656
274772
274887
274997
275105
275213
275319
275435
275555
275681
275808
275942
276073
276204
276325
276439
276542
276645
276747
276846
276941
277037
277134
277232
277329
277426
277525
277630
277731
277836
277939
278045
278159
278276
278391
278511
278634
278752
278867
278979
279100
279218
279336
279445
279550
279657
279759
279862
279963
280064
280163
280263
280361
280464
280578
280690
280799
280902
281003
281106
281211
281315
281418
281523
281629
281739
281845
281960
282079
282203
282329
282454
282585
282715
282841
282960
283082
283220
283364
283493
283606
283708
283808
283907
284004
284102
284201
284300
284399
284499
284598
284699
284801
284912
285028
285141
285259
285377
285485
285592
285700
285806
285908
286008
286110
286210
286309
286406
286504
286609
286715
286825
286943
287058
287171
287274
287382
287498
287622
287734
287839
287941
288008
288145
288246
288343
288440
288536
288631
288730
288832
288953
289062
289165
289271
289380
289486
289600
289723
289843
289961
290069
290169
290265
290359
290453
290548
290642
290736
290830
290923
291015
291109
291207
291312
291429
291544
291669
291791
291898
291996
292089
292184
292278
292373
292467
292561
292654
292747
292840
292934
293027
293119
293212
293304
293395
293486
293578
293673
293769
293865
293969
294075
294179
294281
294382
294479
294573
294670
294770
294877
294994
295107
295231
295340
295438
295538
295641
295740
295845
295948
296046
296143
296238
296332
296426
296518
296611
296703
296794
296885
296977
297067
297158
297254
297352
297450
297549
297645
297740
297835
297928
298029
298128
298226
298321
298415
298510
298607
298714
298822
298931
299043
299157
299268
299380
299481
299578
299673
299770
299874
299983
300095
300203
300306
300405
300502
300600
300697
300798
300901
301014
301122
301229
301337
301437
301535
301633
301730
301827
301932
302040
302156
302265
302386
302509
302625
302730
302832
302928
303025
303120
303216
303313
303411
303507
303604
303704
303808
303911
304029
304145
304270
304376
304477
304574
304670
304770
304878
304991
305096
305212
305319
305422
305521
305619
305716
305815
305912
306010
306106
306202
306297
306397
306497
306597
306696
306808
306929
307048
307171
307296
307412
307511
307606
307700
307794
307888
307983
308077
308171
308265
308359
308456
308553
308664
308775
308883
308982
309078
309174
309268
309362
309455
309549
309651
309750
309846
309943
310038
310133
310226
310320
310413
310515
310615
310714
310812
310910
311005
311101
311197
311295
311393
311496
311600
311705
311816
311918
312017
312111
312208
312305
312403
312515
312630
312738
312839
312938
313036
313142
313246
313357
313457
313556
313656
313760
313873
313990
314106
314222
314337
314451
314564
314682
314801
314920
315048
315163
315287
315401
315506
315606
315704
315811
315930
316056
316179
316298
316414
316524
316635
316742
316845
316944
317043
317142
317243
317347
317456
317574
317694
317823
317949
318074
318197
318319
318446
318564
318673
318777
318877
318975
319073
319171
319268
319364
319459
319555
319650
319744
319843
319954
320073
320183
320288
320393
320498
320608
320735
320863
320988
321110
321232
321357
321478
321581
321680
321778
321875
321972
322079
322192
322302
322405
322505
322611
322715
322816
322919
323025
323133
323247
323353
323458
323562
323666
323771
323873
323977
324090
324209
324326
324446
324558
324662
324766
324868
324969
325068
325167
325265
325363
325462
325564
325674
325777
325878
325980
326088
326199
326303
326403
326504
326602
326708
326820
326933
327050
327168
327286
327396
327505
327610
327709
327807
327904
328001
328107
328228
328338
328456
328573
328684
328798
328919
329028
329129
329230
329329
329428
329526
329624
329726
329841
329961
330067
330175
330282
330387
330493
330613
330739
330857
330974
331094
331214
331331
331447
331563
331679
331789
331896
332002
332108
332217
332322
332427
332532
332636
332738
332839
332947
333057
333175
333286
333412
333530
333651
333765
333870
333972
334075
334179
334281
334384
334489
334599
334715
334836
334957
335068
335177
335284
335385
335486
335583
335679
335773
335866
335959
336052
336145
336238
336331
336426
336523
336635
336749
336863
336973
337084
337199
337332
337452
337561
337659
337755
337852
337954
338057
338157
338255
338354
338451
338547
338641
338735
338828
338920
339012
339105
339198
339289
339380
339472
339565
339658
339758
339854
339950
340047
340147
340248
340353
340465
340584
340705
340817
340937
341048
341147
341242
341337
341433
341528
341622
341715
341807
341898
341989
342086
342181
342275
342367
342459
342550
342641
342731
342821
342910
342999
343089
343179
343268
343363
343472
343581
343685
343791
343886
343983
344078
344171
344266
344358
344454
344549
344644
344737
344830
344921
345013
345106
345198
345292
345384
345477
345573
345680
345791
345899
346006
346111
346219
346322
346423
346522
346618
346714
346811
346909
347005
347104
347204
347302
347398
347493
347586
347679
347772
347864
347956
348047
348139
348229
348319
348408
348502
348598
348702
348797
348890
348988
349088
349186
349281
349373
349468
349566
349666
349766
349865
349960
350058
350155
350252
350351
350448
350553
350662
350765
350863
350958
351053
351147
351240
351334
351426
351519
351611
351703
351795
351887
351980
352073
352165
352261
352358
352453
352549
352646
352743
352840
352934
353029
353123
353219
353315
353416
353519
353624
353733
353836
353937
354032
354127
354223
354320
354418
354518
354622
354731
354837
354936
355033
355129
355225
355321
355415
355509
355609
355721
355828
355934
356035
356133
356234
356341
356446
356551
356657
356758
356858
356954
357051
357146
357240
357333
357426
357519
357612
357705
357809
357921
358031
358145
358259
358372
358484
358595
358701
358807
358909
359004
359098
359189
359280
359369
359458
359546
359633
359720
359807
359894
359980
360066
360152
360238
360323
360409
360494
360579
360664
360749
360835
360919
361005
361090
361175
361260
361345
361430
361515
361599
361684
361769
361854
361938
362023
362108
362192
362277
362361
362446
362530
362616
362701
362787
362872
362961
363051
363146
363245
363346
363444
363538
363629
363720
363813
363909
364004
364095
364187
364279
364372
364463
364553
364643
364731
364819
364906
364992
365081
365172
365264
365362
365463
365561
365663
365765
365863
365957
366054
366146
366236
366325
366413
366500
366587
366672
366758
366844
366931
367017
367104
367190
367279
367368
367456
367545
367639
367732
367823
367914
368003
368092
368179
368267
368355
368442
368528
368614
368701
368790
368883
368974
369064
369153
369242
369328
369416
369506
369596
369687
369781
369874
369970
370060
370150
370239
370329
370417
370507
370599
370690
370779
370867
370955
371043
371129
371217
371306
371396
371485
371578
371670
371766
371868
371975
372075
372168
372264
372358
372450
372541
372630
372723
372820
372914
373009
373102
373195
373293
373387
373481
373580
373681
373790
373900
374009
374123
374229
374339
374440
374538
374634
374728
374822
374916
375021
375125
375230
375330
375428
375527
375623
375723
375830
375941
376046
376150
376255
376366
376478
376586
376699
376805
376909
377009
377107
377204
377301
377404
377516
377631
377750
377874
377985
378103
378216
378323
378425
378524
378620
378719
378824
378927
379027
379125
379223
379333
379436
379537
379636
379734
379834
379941
380060
380168
380272
380375
380477
380577
380675
380772
380869
380966
381061
381155
381248
381347
381447
381558
381671
381780
381885
381986
382085
382185
382284
382382
382477
382572
382668
382765
382871
382973
383068
383167
383265
383369
383473
383591
383701
383804
383905
384003
384100
384195
384289
384383
384483
384581
384678
384773
384866
384959
385052
385145
385238
385329
385422
385513
385604
385694
385785
385879
385976
386070
386163
386272
386385
386497
386600
386702
386804
386910
387015
387116
387215
387314
387408
387501
387594
387687
387779
387871
387964
388065
388167
388278
388396
388512
388614
388712
388808
388907
389007
389106
389203
389299
389393
389486
389578
389671
389762
389854
389945
390036
390127
390219
390312
390409
390510
390612
390717
390820
390920
391014
391109
391203
391297
391397
391498
391607
391722
391837
391954
392068
392172
392270
392368
392464
392558
392650
392741
392835
392927
393019
393112
393208
393305
393404
393501
393594
393689
393783
393875
393972
394075
394179
394286
394395
394495
394592
394687
394781
394876
394981
395086
395197
395311
395422
395524
395623
395721
395817
395912
396007
396104
396209
396315
396416
396522
396635
396744
396854
396972
397080
397187
397299
397416
397523
397623
397719
397813
397907
398002
398098
398193
398287
398381
398475
398577
398686
398797
398909
399021
399129
399237
399345
399458
399568
399681
399800
399914
400028
400135
400248
400364
400485
400604
400725
400841
400948
401051
401151
401250
401353
401453
401552
401648
401742
401836
401929
402021
402113
402206
402302
402398
402491
402584
402675
402770
402863
402958
403055
403150
403258
403358
403452
403545
403639
403735
403831
403924
404017
404115
404222
404329
404430
404537
404650
404762
404875
404990
405096
405195
405292
405389
405486
405583
405680
405777
405874
405971
406068
406163
406259
406354
406448
406541
406632
406724
406817
406910
407002
407094
407186
407282
407377
407477
407583
407699
407809
407933
408040
408147
408252
408351
408445
408540
408632
408723
408815
408914
409017
409116
409211
409305
409397
409492
409587
409681
409774
409866
409958
410053
410161
410274
410382
410498
410619
410728
410840
410946
411051
411153
411251
411347
411442
411537
411632
411731
411836
411937
412035
412132
412228
412323
412422
412530
412641
412753
412861
412972
413084
413194
413309
413424
413540
413655
413769
413873
413973
414070
414169
414265
414359
414452
414544
414636
414729
414821
414912
415005
415102
415213
415319
415428
415528
415627
415724
415819
415914
416009
416103
416197
416290
416382
416472
416563
416655
416746
416836
416926
417016
417106
417196
417286
417377
417466
417559
417657
417762
417866
417969
418068
418162
418256
418354
418449
418543
418635
418727
418818
418909
419000
419096
419195
419301
419409
419517
419622
419728
419841
419955
420061
420160
420258
420355
420453
420551
420649
420752
420848
420944
421041
421135
421230
421326
421422
421518
421614
421711
421807
421901
421996
422094
422189
422285
422382
422480
422575
422672
422767
422865
422965
423061
423159
423254
423354
423455
423556
423665
423771
423871
423970
424076
424176
424277
424380
424481
424580
424678
424777
424877
424976
425074
425171
425266
425362
425458
425557
425656
425760
425867
425981
426100
426225
426349
426470
426582
426693
426795
426893
426990
427084
427181
427277
427377
427476
427573
427669
427764
427857
427951
428047
428142
428236
428329
428421
428513
428611
428718
428831
428942
429060
429172
429275
429384
429486
429601
429716
429834
429953
430074
430199
430311
430414
430518
430628
430731
430842
430960
431081
431208
431317
431437
431553
431674
431795
431905
432010
432113
432217
432328
432449
432560
432667
432769
432870
432981
433095
433205
433313
433418
433521
433625
433730
433835
433939
434041
434142
434242
434341
434439
434537
434635
434736
434836
434936
435034
435131
435228
435325
435422
435519
435615
435711
435809
435907
436004
436102
436203
436309
436427
436536
436659
436772
436902
437037
437166
437279
437387
437492
437612
437720
437823
437922
438023
438129
438231
438331
438433
438533
438631
438732
438836
438942
439048
439158
439268
439387
439504
439627
439738
439841
439941
440040
440139
440235
440337
440444
440547
440659
440774
440883
440986
441084
441180
441274
441368
441461
441553
441646
441737
441828
441918
442007
442097
442187
442276
442366
442455
442544
442632
442721
442813
442909
443001
443093
443184
443273
443362
443451
443539
443627
443716
443807
443902
443995
444090
444190
444287
444379
444472
444562
444652
444742
444837
444930
445022
445114
445206
445299
445398
445496
445591
445683
445776
445867
445957
446047
446140
446233
446326
446422
446518
446616
446708
446801
446893
446985
447081
447176
447275
447372
447465
447561
447656
447754
447855
447955
448061
448161
448264
448371
448472
448568
448662
448756
448852
448951
449046
449142
449241
449341
449438
449534
449629
449721
449813
449906
449998
450089
450183
450289
450395
450507
450612
450723
450832
450934
451032
451130
451228
451328
451428
451526
451623
451719
451815
451911
452007
452103
452200
452298
452404
452509
452611
452712
452812
452909
453012
453117
453222
453329
453447
453573
453703
453840
453962
454080
454190
454318
454429
454557
454677
454805
454934
455048
455172
455289
455405
455511
455616
455729
455839
455947
456068
456178
456300
456426
456546
456659
456773
456891
457019
457138
457249
457357
457465
457576
457685
457793
457904
458015
458124
458231
458343
458454
458568
458679
458790
458902
459008
459114
459221
459326
459434
459551
459662
459768
459873
459976
460077
460178
460279
460383
460486
460602
460715
460827
460936
461042
461148
461251
461355
461464
461569
461677
461785
461892
461995
462102
462212
462320
462429
462535
462642
462750
462860
462967
463079
463189
463295
463399
463512
463618
463725
463831
463934
464037
464138
464239
464339
464440
464541
464641
464752
464866
464989
465103
465229
465357
465472
465598
465714
465840
465960
466081
466199
466317
466445
466559
466671
466779
466883
466983
467083
467183
467284
467383
467485
467596
467720
467833
467939
468046
468156
468269
468386
468500
468615
468727
468835
468940
469041
469140
469236
469330
469423
469514
469605
469694
469784
469872
469960
470050
470144
470237
470330
470423
470515
470607
470701
470799
470900
471003
471104
471203
471296
471395
471494
471592
471703
471831
471965
472083
472199
472319
472426
472535
472659
472775
472882
472993
473109
473235
473349
473454
473553
473653
473758
473864
473972
474100
474234
474372
474486
474592
474693
474799
474919
475045
475167
475295
475413
475525
475635
475742
475847
475970
476095
476209
476328
476442
476551
476661
476769
476876
476988
477104
477216
477329
477449
477565
477677
477794
477909
478021
478126
478230
478333
478437
478540
478645
478759
478878
478992
479109
479225
479344
479463
479583
479704
479825
479946
480073
480197
480322
480452
480590
480727
480864
480998
481128
481256
481374
481483
481587
481690
481795
481902
482033
482166
482286
482403
482513
482621
482748
482865
482981
483097
483209
483314
483418
483519
483618
483721
483832
483942
484052
484168
484300
484422
484550
484671
484778
484877
484973
485074
485173
485272
485378
485490
485611
485720
485821
485918
486013
486110
486226
486348
486470
486583
486704
486830
486949
487061
487184
487295
487396
487496
487596
487699
487798
487894
487987
488089
488210
488319
488423
488521
488615
488708
488812
488915
489034
489142
489258
489365
489462
489557
489648
489740
489832
489925
490018
490111
490206
490306
490410
490514
490622
490733
490838
490947
491062
491170
491284
491390
491497
491610
491725
491843
491945
492041
492136
492233
492330
492428
492524
492621
492720
492816
492912
493015
493118
493218
493316
493411
493507
493601
493695
493790
493886
493984
494081
494178
494283
494396
494510
494624
494740
494860
494979
495098
495213
495339
495462
495597
495729
495863
495985
496114
496240
496348
496449
496550
496653
496761
496870
496989
497102
497208
497310
497411
497512
497615
497728
497837
497954
498073
498193
498308
498420
498525
498630
498738
498856
498974
499087
499195
499299
499401
499505
499609
499712
499813
499914
500012
500121
500232
500354
500474
500594
500705
500808
500907
501005
501102
501199
501301
501402
501511
501617
501722
501826
501932
502037
502138
502238
502336
502435
502533
502641
502755
502872
502988
503108
503222
503333
503443
503546
503646
503747
503852
503957
504065
504168
504271
504377
504482
504588
504699
504809
504916
505025
505134
505239
505342
505443
505543
505645
505755
505869
505976
506081
506184
506287
506397
506507
506614
506717
506818
506919
507018
507118
507218
507318
507416
507515
507613
507712
507809
507906
508002
508098
508195
508294
508402
508518
508637
508754
508868
508972
509069
509164
509261
509357
509454
509550
509646
509742
509837
509932
510028
510131
510244
510359
510473
510590
510713
510838
510966
511095
511224
511352
511464
511565
511663
511760
511856
511951
512048
512146
512245
512344
512443
512543
512644
512753
512859
512962
513064
513166
513276
513388
513502
513623
513740
513855
513980
514101
514217
514325
514436
514544
514649
514754
514858
514961
515063
515166
515268
515370
515472
515574
515676
515776
515876
515974
516071
516167
516263
516360
516458
516556
516662
516777
516890
517011
517133
517249
517369
517488
517606
517714
517815
517914
518013
518116
518223
518327
518450
518562
518682
518799
518922
519046
519156
519273
519391
519506
519627
519742
519858
519975
520086
520188
520289
520389
520490
520591
520693
520800
520922
521048
521167
521276
521391
521511
521620
521738
521848
521953
522057
522159
522261
522367
522473
522587
522714
522826
522952
523075
523198
523321
523442
523562
523671
523778
523891
523997
524102
524206
524309
524413
524519
524625
524732
524849
524962
525086
525213
525334
525456
525576
525698
525813
525921
526023
526129
526234
526339
526445
526558
526675
526791
526912
527041
527172
527292
527400
527503
527604
527707
527808
527909
528010
528114
528218
528322
528440
528551
528672
528793
528916
529041
529156
529280
529391
529511
529633
529765
529898
530019
530145
530270
530387
530493
530597
530700
530803
530905
531009
531112
531219
531333
531455
531576
531699
531819
531932
532043
532158
532276
532390
532498
532605
532711
532817
532924
533029
533135
533243
533349
533456
533562
533669
533777
533882
533991
534100
534209
534317
534424
534529
534635
534741
534846
534949
535053
535156
535260
535361
535460
535561
535661
535761
535861
535959
536061
536173
536284
536390
536496
536600
536702
536804
536913
537019
537129
537232
537339
537441
537541
537641
537740
537839
537941
538045
538148
538250
538357
538462
538574
538682
538788
538894
538996
539101
539203
539312
539429
539546
539667
539799
539926
540049
540162
540278
540407
540530
540648
540756
540862
540968
541072
541177
541282
541389
541498
541619
541734
541840
541946
542053
542158
542265
542372
542478
542585
542690
542795
542900
543003
543109
543217
543322
543428
543531
543636
543741
543846
543950
544056
544166
544274
544391
544516
544627
544733
544843
544948
545054
545159
545262
545365
545469
545571
545671
545772
545873
545974
546074
546180
546282
546384
546488
546586
546687
546788
546888
546993
547108
547217
547325
547427
547528
547629
547729
547830
547930
548030
548131
548232
548334
548439
548541
548643
548745
548848
548950
549052
549155
549257
549362
549470
549573
549679
549787
549895
550003
550106
550209
550313
550415
550518
550621
550723
550830
550934
551042
551150
551252
551359
551467
551577
551691
551804
551912
552022
552131
552240
552344
552452
552559
552666
552774
552880
552989
553111
553229
553342
553450
553564
553680
553788
553894
554000
554105
554209
554313
554419
554526
554631
554735
554843
554946
555049
555153
555260
555375
555497
555611
555737
555864
555989
556118
556253
556381
556498
556602
556704
556805
556916
557044
557173
557318
557444
557582
557720
557866
558008
558148
558267
558404
558518
558644
558769
558876
558980
559083
559186
559289
559392
559496
559600
559705
559810
559915
560020
560125
560228
560331
560433
560535
560635
560735
560835
560935
561034
561132
561233
561335
561436
561541
561642
561751
561857
561960
562062
562168
562274
562379
562488
562597
562700
562807
562914
563025
563133
563242
563352
563467
563574
563679
563783
563886
563989
564092
564195
564301
564407
564513
564620
564728
564834
564942
565050
565157
565267
565377
565489
565597
565707
565815
565923
566035
566143
566250
566358
566465
566572
566679
566792
566918
567038
567152
567262
567369
567477
567583
567689
567796
567907
568017
568124
568229
568336
568443
568551
568659
568773
568885
568992
569096
569211
569324
569431
569537
569660
569789
569921
570054
570193
570318
570433
570538
570639
570741
570843
570946
571050
571154
571256
571357
571458
571559
571662
571764
571864
571962
572058
572155
572251
572348
572446
572543
572641
572743
572851
572959
573063
573168
573276
573380
573489
573600
573708
573820
573930
574039
574145
574245
574344
574441
574538
574633
574730
574829
574931
575031
575134
575234
575333
575433
575532
575631
575731
575831
575934
576041
576148
576259
576364
576470
576571
576676
576775
576871
576968
577064
577158
577251
577344
577437
577530
577622
577715
577816
577922
578030
578136
578243
578347
578450
578562
578677
578795
578905
579007
579105
579204
579303
579403
579501
579600
579704
579816
579936
580061
580190
580301
580399
580497
580606
580717
580833
580941
581051
581160
581265
581371
581476
581580
581681
581783
581885
581987
582089
582193
582296
582399
582501
582610
582720
582826
582930
583032
583135
583237
583338
583437
583537
583637
583737
583837
583940
584041
584140
584239
584337
584433
584528
584622
584714
584807
584902
584996
585093
585189
585289
585391
585495
585599
585703
585807
585915
586022
586124
586230
586336
586442
586541
586637
586733
586827
586920
587014
587107
587201
587294
587386
587480
587579
587677
587774
587868
587964
588060
588155
588250
588343
588436
588529
588625
588719
588813
588906
589000
589100
589205
589305
589402
589500
589596
589691
589786
589879
589975
590073
590171
590269
590367
590470
590567
590663
590758
590852
590947
591042
591142
591243
591341
591440
591540
591638
591736
591833
591929
592029
592134
592246
592357
592471
592582
592689
592790
592894
592999
593101
593205
593317
593428
593536
593641
593746
593866
593990
594103
594207
594309
594411
594511
594616
594721
594825
594929
595033
595140
595246
595352
595462
595575
595683
595789
595896
596001
596106
596210
596314
596417
596520
596623
596725
596830
596935
597039
597147
597254
597370
597492
597615
597729
597838
597944
598059
598182
598303
598423
598539
598663
598789
598905
599014
599116
599223
599328
599434
599540
599646
599756
599872
599983
600091
600202
600314
600427
600535
600648
600755
600864
600974
601085
601194
601301
601409
601519
601627
601749
601861
601973
602084
602193
602302
602409
602520
602636
602749
602868
602987
603112
603234
603354
603473
603595
603713
603827
603944
604066
604177
604286
604393
604500
604606
604713
604822
604928
605036
605144
605255
605363
605470
605577
605684
605794
605902
606009
606115
606219
606328
606435
606544
606653
606760
606866
606970
607075
607179
607285
607400
607511
607626
607743
607851
607968
608080
608205
608316
608423
608530
608636
608745
608850
608968
609085
609195
609303
609410
609517
609623
609726
609832
609937
610048
610161
610282
610396
610515
610642
610754
610875
610998
611111
611217
611322
611427
611533
611638
611743
611847
611950
612055
612162
612266
612367
612469
612572
612676
612782
612884
613002
613126
613248
613380
613500
613634
613765
613880
613991
614095
614200
614304
614404
614506
614606
614709
614812
614916
615018
615120
615222
615322
615428
615533
615640
615747
615850
615951
616050
616149
616247
616344
616441
616541
616646
616768
616881
617005
617123
617250
617373
617498
617610
617720
617849
617962
618086
618202
618322
618450
618567
618696
618816
618929
619039
619144
619247
619351
619461
619583
619711
619838
619965
620090
620209
620324
620430
620535
620640
620742
620846
620948
621052
621156
621266
621386
621499
621607
621718
621828
621933
622040
622146
622251
622354
622462
622581
622705
622825
622948
623060
623165
623268
623371
623473
623580
623687
623810
623934
624048
624156
624264
624370
624476
624581
624684
624786
624888
624989
625090
625190
625288
625387
625485
625583
625679
625775
625872
625970
626068
626165
626266
626374
626482
626588
626691
626792
626897
627008
627113
627214
627316
627423
627529
627631
627735
627845
627963
628073
628175
628283
628392
628498
628600
628709
628829
628942
629048
629154
629261
629364
629470
629583
629692
629795
629903
630020
630133
630237
630343
630450
630560
630666
630767
630870
630977
631081
631188
631302
631420
631532
631652
631771
631876
631988
632109
632217
632327
632438
632550
632661
632782
632914
633033
633162
633282
633410
633532
633655
633777
633899
634019
634141
634257
634379
634495
634612
634725
634843
634959
635077
635195
635316
635434
635558
635685
635802
635922
636044
636158
636276
636402
636516
636638
636755
636873
636991
637108
637222
637343
637462
637574
637690
637811
637933
638048
638169
638285
638407
638528
638651
638767
638887
639008
639121
639229
639347
639476
639593
639708
639830
639947
640061
640171
640278
640385
640495
640605
640728
640848
640959
641065
641174
641280
641387
641495
641605
641714
641830
641952
642067
642185
642311
642430
642551
642674
642790
642909
643024
643136
643242
643349
643453
643557
643661
643766
643870
643974
644084
644203
644329
644451
644564
644674
644780
644899
645019
645147
645263
645369
645473
645578
645681
645782
645886
645995
646109
646228
646334
646439
646542
646645
646749
646857
646977
647087
647195
647301
647405
647509
647612
647719
647831
647952
648063
648169
648273
648382
648494
648616
648739
648851
648958
649062
649167
649270
649378
649486
649606
649723
649835
649942
650047
650151
650257
650363
650468
650572
650675
650776
650876
650976
651074
651172
651268
651365
651461
651557
651652
651746
651842
651942
652045
652148
652252
652352
652451
652550
652656
652761
652862
652963
653063
653164
653269
653370
653470
653570
653672
653776
653879
653979
654081
654188
654291
654392
654493
654601
654711
654819
654927
655030
655129
655227
655325
655421
655518
655619
655721
655821
655919
656021
656124
656223
656324
656434
656543
656648
656758
656870
656975
657089
657210
657318
657425
657540
657648
657755
657858
657964
658081
658200
658332
658456
658581
658710
658831
658962
659083
659210
659333
659457
659567
659691
659820
659937
660051
660166
660283
660408
660520
660631
660737
660847
660953
661064
661175
661293
661418
661536
661650
661756
661871
661987
662099
662221
662335
662455
662568
662687
662805
662930
663048
663163
663277
663386
663505
663622
663742
663855
663970
664080
664201
664319
664434
664548
664659
664774
664893
665020
665137
665249
665354
665457
665559
665665
665777
665892
666019
666131
666235
666338
666447
666561
666689
666814
666943
667068
667190
667320
667448
667562
667666
667770
667872
667977
668082
668188
668298
668402
668502
668599
668694
668788
668882
668976
669070
669162
669255
669348
669440
669532
669624
669717
669810
669902
670000
670110
670222
670334
670450
670568
670675
670790
670891
670985
671084
671182
671282
671388
671492
671592
671691
671791
671894
671998
672104
672208
672320
672424
672526
672628
672727
672823
672920
673017
673116
673217
673324
673440
673549
673663
673772
673885
673994
674098
674200
674301
674403
674504
674608
674708
674814
674917
675020
675121
675225
675328
675433
675537
675644
675746
675859
675973
676089
676206
676312
676416
676517
676618
676717
676827
676936
677044
677150
677253
677354
677455
677555
677666
677790
677903
678022
678149
678270
678389
678513
678631
678738
678842
678943
679049
679160
679286
679408
679541
679663
679796
679913
680045
680177
680292
680402
680511
680614
680720
680831
680960
681098
681234
681356
681471
681579
681683
681786
681908
682045
682180
682307
682423
682528
682630
682730
682831
682931
683031
683129
683228
683328
683432
683539
683650
683758
683865
683968
684070
684170
684268
684364
684461
684558
684654
684751
684847
684943
685041
685144
685244
685349
685450
685550
685652
685760
685866
685981
686098
686203
686306
686405
686505
686604
686704
686803
686901
686999
687098
687201
687306
687409
687509
687610
687714
687820
687921
688021
688121
688219
688317
688414
688512
688610
688710
688811
688911
689011
689112
689210
689310
689410
689513
689616
689715
689817
689921
690021
690124
690228
690332
690443
690552
690657
690759
690861
690961
691065
691170
691278
691393
691511
691627
691738
691843
691946
692049
692151
692262
692376
692486
692599
692716
692834
692955
693066
693175
693279
693382
693485
693589
693691
693800
693907
694012
694119
694226
694331
694436
694540
694642
694742
694839
694936
695042
695153
695258
695366
695467
695569
695670
695769
695869
695970
696072
696172
696270
696367
696465
696561
696660
696764
696867
696969
697069
697169
697268
697374
697482
697601
697711
697814
697917
698018
698120
698222
698328
698434
698539
698646
698747
698850
698951
699052
699153
699254
699355
699457
699558
699658
699759
699862
699962
700066
700167
700271
700375
700479
700582
700685
700788
700894
700999
701104
701206
701310
701412
701517
701622
701737
701845
701951
702059
702163
702270
702374
702481
702589
702706
702819
702936
703045
703153
703260
703365
703472
703579
703689
703800
703909
704018
704126
704233
704339
704448
704556
704662
704772
704877
704988
705099
705209
705318
705436
705550
705667
705789
705915
706035
706151
706266
706372
706479
706584
706699
706809
706918
707027
707133
707237
707340
707446
707567
707683
707792
707901
708005
708111
708215
708317
708415
708514
708613
708710
708809
708907
709006
709103
709199
709295
709393
709497
709597
709698
709797
709895
709994
710099
710198
710300
710397
710496
710593
710688
710783
710881
710980
711080
711183
711291
711401
711505
711606
711716
711833
711951
712062
712175
712303
712438
712568
712679
712779
712876
712981
713097
713218
713340
713459
713579
713694
713813
713927
714034
714136
714240
714358
714486
714602
714711
714816
714921
715033
715142
715254
715365
715474
715581
715688
715794
715899
716011
716120
716228
716341
716448
716556
716666
716775
716888
717000
717115
717234
717362
717484
717605
717727
717845
717953
718061
718168
718275
718383
718495
718611
718738
718863
718982
719095
719208
719320
719429
719541
719662
719774
719885
719994
720104
720212
720320
720430
720538
720649
720759
720867
720976
721085
721195
721317
721442
721567
721684
721795
721901
722010
722120
722225
722328
722428
722526
722625
722721
722818
722913
723007
723101
723194
723286
723378
723470
723562
723653
723753
723855
723953
724049
724145
724242
724345
724444
724548
724652
724754
724861
724974
725079
725194
725308
725428
725554
725672
725791
725916
726020
726127
726248
726359
726469
726597
726718
726849
726969
727075
727178
727278
727379
727480
727581
727682
727783
727883
727984
728086
728189
728290
728393
728495
728597
728699
728805
728915
729025
729142
729254
729362
729467
729586
729694
729808
729917
730020
730122
730224
730328
730431
730532
730633
730731
730830
730927
731023
731124
731226
731337
731447
731559
731666
731768
731868
731967
732065
732161
732262
732364
732464
732561
732659
732758
732855
732954
733051
733147
733242
733337
733437
733539
733638
733736
733832
733929
734027
734126
734224
734322
734420
734520
734622
734721
734818
734914
735009
735108
735209
735309
735409
735514
735617
735716
735814
735916
736017
736121
736230
736345
736449
736550
736650
736749
736846
736943
737040
737141
737245
737347
737445
737543
737640
737736
737832
737927
738024
738121
738221
738320
738426
738530
738630
738731
738830
738929
739027
739125
739224
739325
739432
739542
739653
739769
739894
740020
740145
740264
740375
740493
740597
740697
740794
740891
740987
741083
741180
741276
741373
741470
741565
741662
741764
741868
741974
742078
742183
742283
742382
742480
742576
742671
742766
742860
742955
743048
743141
743235
743328
743420
743513
743610
743707
743807
743907
744011
744119
744223
744328
744431
744535
744636
744733
744834
744929
745025
745119
745211
745303
745395
745486
745578
745673
745771
745869
745965
746060
746156
746258
746357
746455
746556
746659
746760
746864
746966
747065
747165
747262
747357
747452
747546
747641
747738
747836
747931
748027
748121
748216
748314
748412
748518
748620
748723
748822
748925
749033
749145
749259
749366
749468
749571
749676
749779
749888
749994
750097
750198
750298
750398
750496
750598
750716
750834
750950
751056
751161
751265
751366
751465
751564
751664
751762
751869
751978
752082
752187
752292
752400
752507
752620
752739
752847
752949
753051
753151
753249
753345
753440
753535
753629
753725
753819
753913
754005
754098
754192
754292
754389
754492
754594
754694
754803
754915
755019
755117
755217
755319
755419
755517
755614
755715
755816
755916
756014
756112
756208
756305
756401
756497
756598
756701
756802
756904
757008
757109
757215
757320
757420
757523
757630
757735
757838
757948
758059
758167
758277
758399
758529
758638
758743
758845
758952
759058
759172
759278
759380
759482
759584
759683
759784
759886
759987
760091
760195
760298
760405
760522
760639
760757
760874
760991
761109
761222
761330
761437
761545
761650
761755
761859
761964
762075
762185
762296
762408
762525
762642
762757
762869
762975
763077
763178
763277
763375
763471
763565
763659
763752
763844
763935
764026
764116
764206
764296
764386
764476
764565
764653
764741
764829
764916
765005
765094
765182
765270
765357
765445
765532
765621
765710
765798
765887
765981
766082
766184
766280
766371
766466
766558
766650
766742
766833
766922
767012
767103
767197
767293
767390
767486
767580
767676
767774
767875
767977
768078
768187
768295
768395
768490
768585
768685
768784
768879
768975
769071
769166
769266
769367
769472
769577
769681
769790
769901
770007
770108
770204
770301
770398
770493
770588
770684
770782
770879
770978
771081
771186
771290
771394
771500
771604
771706
771817
771929
772037
772151
772266
772377
772487
772593
772700
772812
772928
773041
773147
773249
773353
773456
773565
773678
773791
773902
774013
774118
774222
774331
774446
774560
774673
774787
774899
775004
775107
775208
775307
775406
775504
775603
775702
775800
775898
775996
776098
776208
776326
776441
776557
776669
776779
776890
776998
777105
777217
777328
777448
777572
777688
777807
777918
778022
778127
778233
778347
778460
778573
778687
778799
778918
779031
779149
779279
779405
779516
779628
779737
779843
779948
780053
780158
780263
780372
780488
780609
780735
780863
780993
781119
781250
781376
781498
781616
781736
781853
781965
782073
782179
782285
782391
782498
782608
782724
782846
782973
783092
783205
783314
783424
783534
783644
783753
783866
783983
784102
784215
784328
784439
784557
784681
784799
784915
785034
785161
785285
785409
785528
785654
785775
785899
786019
786143
786256
786383
786508
786626
786758
786881
787009
787141
787277
787409
787546
787672
787801
787930
788061
788176
788281
788385
788489
788594
788710
788823
788956
789087
789219
789352
789472
789589
789706
789817
789933
790055
790168
790283
790413
790540
790663
790796
790927
791050
791176
791303
791433
791563
791696
791827
791951
792063
792172
792279
792385
792490
792596
792700
792807
792912
793018
793121
793224
793327
793432
793543
793659
793771
793889
794006
794136
794258
794373
794486
794589
794695
794800
794903
795006
795107
795210
795313
795419
795522
795626
795732
795844
795953
796069
796190
796305
796437
796563
796679
796802
796911
797021
797130
797255
797372
797494
797608
797717
797826
797940
798052
798165
798287
798421
798539
798651
798760
798872
798984
799100
799219
799332
799442
799551
799663
799794
799913
800034
800161
800276
800389
800496
800608
800725
800850
800978
801101
801216
801329
801443
801554
801669
801780
801891
802001
802111
802218
802327
802438
802551
802673
802791
802904
803014
803126
803241
803371
803491
803610
803722
803832
803938
804050
804163
804273
804382
804490
804599
804715
804846
804961
805091
805207
805327
805440
805548
805664
805779
805888
805995
806103
806209
806315
806426
806543
806657
806766
806878
806988
807095
807201
807308
807413
807528
807646
807762
807878
807996
808120
808233
808340
808445
808549
808653
808768
808879
808987
809097
809210
809326
809457
809584
809696
809803
809906
810009
810111
810214
810316
810417
810518
810618
810718
810817
810916
811014
811112
811211
811311
811410
811512
811613
811714
811816
811920
812020
812128
812239
812345
812447
812547
812649
812752
812854
812958
813062
813173
813283
813391
813501
813618
813731
813836
813952
814069
814191
814316
814428
814538
814648
814755
814861
814970
815077
815184
815298
815413
815523
815630
815738
815864
815988
816098
816207
816313
816419
816522
816626
816727
816828
816928
817026
817126
817224
817323
817421
817518
817614
817711
817807
817902
817998
818095
818199
818315
818431
818537
818644
818752
818854
818963
819069
819173
819276
819377
819476
819575
819673
819776
819879
819981
820082
820183
820284
820385
820484
820589
820703
820821
820943
821055
821159
821263
821366
821471
821576
821684
821790
821912
822024
822130
822235
822339
822441
822544
822646
822746
822852
822964
823079
823188
823310
823421
823535
823643
823747
823849
823949
824050
824153
824257
824360
824462
824561
824659
824758
824858
824960
825064
825172
825279
825383
825490
825596
825713
825829
825951
826068
826181
826301
826409
826510
826613
826719
826821
826925
827030
827133
827235
827335
827433
827534
827641
827749
827857
827957
828057
828154
828252
828359
828459
828559
828658
828755
828851
828946
829042
829136
829231
829325
829418
829511
829605
829699
829792
829885
829980
830075
830170
830265
830358
830453
830552
830651
830750
830856
830958
831056
831152
831249
831344
831441
831538
831635
831731
831826
831921
832014
832107
832201
832297
832392
832486
832584
832683
832790
832899
833005
833106
833203
833302
833408
833511
833617
833723
833826
833926
834027
834134
834247
834353
834466
834585
834690
834791
834893
834994
835094
835191
835289
835389
835496
835598
835699
835803
835908
836009
836113
836218
836323
836425
836531
836635
836737
836846
836956
837065
837178
837290
837396
837499
837602
837704
837811
837915
838032
838143
838258
838367
838473
838578
838687
838803
838920
839030
839137
839245
839349
839459
839573
839692
839803
839917
840031
840142
840251
840357
840463
840569
840674
840779
840881
840983
841083
841187
841293
841398
841502
841611
841715
841823
841930
842034
842139
842240
842347
842459
842570
842688
842797
842905
843009
843118
843227
843344
843458
843569
843677
843786
843894
844014
844128
844242
844350
844463
844575
844700
844816
844934
845046
845151
845260
845368
845477
845585
845693
845804
845913
846024
846130
846249
846363
846474
846581
846687
846798
846907
847012
847115
847217
847319
847421
847522
847621
847719
847816
847914
848011
848111
848214
848317
848421
848527
848630
848739
848846
848949
849048
849146
849242
849337
849432
849527
849626
849726
849824
849921
850017
850116
850221
850339
850454
850572
850683
850786
850890
850990
851090
851191
851293
851395
851499
851603
851705
851816
851926
852040
852157
852269
852394
852506
852634
852754
852882
853010
853134
853270
853410
853544
853691
853808
853929
854052
854185
854303
854410
854513
854619
854724
854829
854934
855036
855140
855244
855346
855450
855562
855670
855781
855893
856003
856111
856225
856344
856458
856575
856690
856797
856899
857001
857106
857212
857319
857424
857527
857627
857726
857825
857924
858022
858123
858233
858347
858464
858583
858687
858790
858892
858992
859089
859187
859288
859395
859507
859614
859720
859831
859940
860055
860176
860301
860422
860539
860644
860750
860858
860964
861072
861178
861286
861398
861506
861612
861723
861829
861940
862047
862159
862267
862378
862490
862597
862702
862809
862918
863027
863136
863246
863357
863475
863600
863729
863858
863986
864115
864247
864381
864510
864641
864771
864892
865015
865138
865252
865361
865478
865598
865714
865829
865940
866049
866156
866263
866370
866476
866583
866690
866796
866902
867008
867116
867229
867348
867472
867597
867715
867835
867956
868079
868196
868303
868407
868511
868614
868717
868819
868924
869028
869132
869235
869338
869443
869551
869670
869787
869908
870033
870156
870279
870407
870534
870661
870790
870919
871047
871177
871304
871421
871529
871665
871791
871911
872024
872137
872259
872381
872497
872608
872718
872828
872938
873049
873161
873281
873409
873535
873665
873792
873920
874051
874180
874303
874416
874528
874654
874784
874915
875038
875156
875268
875378
875488
875598
875710
875820
875932
876044
876157
876269
876388
876505
876617
876730
876844
876956
877067
877183
877298
877425
877553
877672
877795
877916
878043
878167
878281
878399
878521
878645
878766
878890
879016
879147
879271
879394
879510
879627
879742
879854
879978
880094
880201
880322
880464
880596
880733
880865
881003
881132
881274
881399
881519
881653
881766
881874
881978
882081
882186
882288
882392
882496
882599
882705
882812
882927
883056
883185
883308
883433
883562
883691
883807
883919
884029
884138
884245
884353
884462
884577
884713
884848
884982
885110
885229
885348
885470
885591
885707
885820
885929
886039
886148
886255
886361
886468
886575
886681
886787
886893
887010
887130
887267
887400
887537
887660
887786
887920
888038
888147
888253
888360
888471
888583
888694
888822
888953
889080
889211
889327
889440
889550
889659
889766
889875
889995
890117
890239
890365
890481
890590
890698
890803
890909
891018
891131
891260
891381
891500
891610
891717
891823
891929
892034
892140
892246
892365
892487
892599
892714
892837
892967
893086
893218
893355
893490
893618
893745
893862
893970
894077
894184
894290
894395
894501
894606
894710
894813
894917
895026
895151
895268
895389
895510
895622
895731
895836
895939
896041
896143
896246
896350
896454
896560
896676
896794
896922
897041
897166
897290
897420
897548
897672
897788
897897
898004
898109
898215
898321
898428
898537
898647
898758
898873
898989
899116
899244
899372
899503
899621
899746
899860
899975
900100
900220
900352
900477
900597
900724
900844
900958
901071
901186
901301
901415
901527
901637
901745
901874
901994
902121
902244
902371
902500
902620
902740
902868
902987
903113
903234
903348
903466
903581
903711
903837
903960
904076
904188
904299
904408
904519
904631
904750
904874
905004
905130
905252
905380
905496
905618
905745
905872
906003
906123
906238
906351
906484
906602
906733
906858
906977
907089
907200
907310
907420
907529
907639
907751
907862
907974
908092
908213
908329
908455
908572
908699
908817
908950
909081
909215
909350
909477
909602
909738
909863
909996
910122
910239
910351
910472
910592
910710
910847
910970
911097
911229
911360
911496
911626
911747
911872
911987
912100
912212
912323
912433
912544
912655
912769
912881
912998
913113
913245
913373
913503
913621
913747
913863
913987
914112
914233
914350
914467
914583
914694
914802
914909
915015
915120
915222
915324
915424
915524
915623
915724
915839
915967
916089
916219
916348
916479
916616
916741
916877
917007
917145
917263
917379
917489
917601
917714
917826
917939
918050
918160
918268
918377
918506
918630
918761
918888
919015
919134
919253
919362
919479
919592
919707
919821
919933
920041
920147
920257
920365
920471
920575
920678
920779
920881
920984
921090
921208
921336
921456
921588
921710
921841
921962
922096
922212
922332
922453
922577
922694
922829
922964
923106
923247
923379
923495
923609
923720
923839
923962
924083
924196
924306
924414
924520
924627
924736
924863
924983
925113
925244
925374
925505
925632
925746
925859
925988
926111
926243
926371
926492
926612
926727
926835
926943
927051
927161
927281
927414
927538
927671
927789
927923
928045
928187
928312
928439
928569
928707
928828
928958
929101
929221
929340
929455
929568
929682
929800
929915
930031
930155
930286
930413
930549
930673
930808
930929
931055
931174
931287
931420
931536
931650
931766
931878
931991
932102
932216
932335
932455
932589
932713
932846
932980
933113
933246
933367
933480
933599
933723
933852
933979
934104
934220
934337
934466
934595
934725
934847
934978
935097
935209
935319
935430
935548
935664
935779
935907
936031
936149
936262
936379
936498
936614
936723
936840
936966
937094
937210
937334
937461
937576
937702
937828
937947
938064
938184
938310
938429
938547
938661
938780
938899
939012
939128
939256
939386
939508
939632
939760
939891
940015
940146
940280
940403
940536
940662
940775
940893
941024
941143
941257
941390
941518
941654
941786
941933
942069
942226
942359
942517
942643
942751
942871
942999
943135
943256
943376
943487
943599
943711
943821
943930
944044
944168
944307
944434
944573
944706
944843
944970
945110
945237
945377
945500
945638
945771
945891
946015
946136
946273
946401
946520
946649
946771
946892
947014
947147
947270
947397
947517
947648
947778
947908
948041
948163
948298
948431
948576
948702
948845
948974
949111
949236
949361
949497
949630
949766
949897
950033
950155
950271
950388
950506
950632
950768
950900
951030
951155
951283
951409
951544
951687
951833
951969
952111
952255
952383
952521
952644
952760
952876
952992
953117
953241
953357
953486
953608
953721
953832
953942
954061
954186
954316
954445
954574
954705
954838
954971
955096
955228
955357
955483
955613
955749
955869
956002
956132
956270
956403
956541
956672
956815
956945
957076
957190
957312
957444
957581
957714
957836
957948
958060
958187
958310
958429
958561
958689
958816
958933
959053
959173
959287
959398
959514
959628
959740
959863
959988
960107
960220
960352
960477
960615
960746
960893
961027
961157
961306
961432
961550
961674
961828
961980
962131
962260
962412
962557
962686
962840
962996
963139
963274
963412
963552
963678
963790
963904
964025
964168
964301
964420
964556
964690
964825
964958
965087
965210
965338
965457
965572
965685
965803
965925
966045
966161
966296
966429
966553
966685
966817
966943
967058
967180
967310
967454
967588
967736
967877
968010
968140
968290
968419
968557
968703
968827
968972
969093
969208
969325
969440
969575
969699
969842
969982
970128
970254
970395
970515
970630
970743
970880
971013
971134
971251
971366
971479
971599
971721
971841
971963
972098
972232
972354
972474
972609
972732
972848
972975
973097
973214
973337
973472
973595
973715
973847
973968
974101
974222
974341
974481
974615
974765
974912
975067
975220
975354
975511
975647
975773
975914
976069
976218
976353
976503
976628
976746
976860
976973
977083
977202
977333
977466
977605
977747
977886
978015
978145
978275
978418
978548
978683
978821
978957
979099
979237
979372
979495
979611
979745
979880
980018
980148
980271
980410
980552
980688
980811
980942
981061
981182
981302
981422
981540
981666
981805
981935
982075
982206
982344
982478
982613
982740
982880
983010
983157
983291
983422
983545
983669
983801
983944
984069
984215
984354
984496
984626
984745
984858
984972
985089
985207
985323
985438
985567
985698
985815
985932
986055
986195
986327
986459
986581
986708
986834
986949
987068
987194
987312
987439
987578
987712
987846
987964
988076
988188
988299
988421
988562
988690
988814
988931
989050
989179
989298
989412
989522
989632
989741
989850
989957
990064
990169
990281
990399
990520
990641
990771
990902
991021
991129
991233
991337
991440
991546
991654
991766
991887
991994
992102
992213
992331
992440
992543
992644
992744
992843
992942
993040
993137
993240
993350
993471
993590
993709
993826
993941
994060
994183
994296
994408
994532
994669
994795
994924
995059
995191
995318
995447
995583
995712
995821
995925
996032
996141
996248
996352
996455
996561
996676
996799
996919
997045
997173
997292
997406
997518
997629
997757
997890
998008
998136
998260
998381
998504
998627
998750
998873
998995
999127
999251
999366
999477
999585
999699
999819
999939
1000060
1000186
1000298
1000408
1000516
1000623
1000728
1000837
1000946
1001054
1001162
1001272
1001394
1001507
1001619
1001731
1001844
1001960
1002089
1002222
1002355
1002491
1002629
1002742
1002856
1002968
1003082
1003192
1003302
1003417
1003530
1003641
1003750
1003858
1003972
1004084
1004201
1004324
1004454
1004579
1004704
1004829
1004953
1005078
1005191
1005307
1005429
1005552
1005671
1005789
1005916
1006035
1006148
1006256
1006361
1006464
1006566
1006668
1006770
1006877
1006983
1007094
1007203
1007308
1007412
1007512
1007611
1007710
1007808
1007910
1008011
1008114
1008214
1008314
1008414
1008512
1008609
1008710
1008814
1008916
1009024
1009131
1009241
1009360
1009479
1009594
1009710
1009829
1009947
1010065
1010178
1010299
1010408
1010513
1010617
1010725
1010833
1010941
1011047
1011151
1011255
1011369
1011490
1011611
1011735
1011865
1011999
1012120
1012235
1012345
1012455
1012575
1012700
1012824
1012948
1013075
1013210
1013340
1013472
1013608
1013727
1013852
1013974
1014096
1014211
1014324
1014436
1014547
1014656
1014768
1014884
1015010
1015132
1015248
1015359
1015470
1015581
1015690
1015800
1015913
1016030
1016149
1016270
1016394
1016504
1016608
1016709
1016809
1016910
1017008
1017108
1017208
1017308
1017407
1017507
1017608
1017713
1017827
1017943
1018063
1018188
1018311
1018440
1018582
1018710
1018835
1018977
1019116
1019235
1019347
1019457
1019564
1019676
1019792
1019916
1020035
1020146
1020257
1020365
1020470
1020576
1020680
1020785
1020890
1020996
1021102
1021210
1021324
1021443
1021569
1021691
1021810
1021920
1022025
1022131
1022238
1022345
1022452
1022557
1022667
1022775
1022882
1022989
1023094
1023198
1023302
1023406
1023508
1023610
1023712
1023816
1023918
1024020
1024122
1024227
1024352
1024481
1024613
1024736
1024843
1024944
1025043
1025140
1025243
1025349
1025457
1025579
1025706
1025840
1025974
1026104
1026223
1026328
1026431
1026532
1026635
1026736
1026840
1026943
1027048
1027152
1027258
1027368
1027480
1027597
1027718
1027836
1027951
1028063
1028172
1028280
1028388
1028495
1028603
1028713
1028824
1028941
1029067
1029182
1029308
1029435
1029566
1029703
1029844
1029984
1030124
1030262
1030376
1030489
1030601
1030713
1030825
1030941
1031069
1031196
1031321
1031438
1031561
1031683
1031802
1031937
1032067
1032205
1032338
1032464
1032582
1032705
1032824
1032942
1033064
1033192
1033324
1033452
1033580
1033707
1033833
1033961
1034085
1034195
1034302
1034407
1034511
1034614
1034715
1034814
1034913
1035010
1035106
1035200
1035294
1035387
1035479
1035572
1035665
1035760
1035855
1035951
1036045
1036138
1036231
1036323
1036414
1036506
1036597
1036688
1036779
1036870
1036961
1037052
1037144
1037234
1037328
1037422
1037522
1037627
1037727
1037824
1037923
1038019
1038115
1038210
1038304
1038397
1038490
1038584
1038680
1038777
1038875
1038974
1039075
1039176
1039277
1039378
1039477
1039576
1039680
1039793
1039908
1040017
1040123
1040229
1040339
1040451
1040568
1040688
1040811
1040935
1041060
1041192
1041317
1041446
1041558
1041663
1041766
1041869
1041972
1042077
1042183
1042288
1042394
1042503
1042614
1042727
1042844
1042959
1043079
1043197
1043321
1043448
1043574
1043694
1043808
1043918
1044031
1044144
1044261
1044375
1044500
1044628
1044755
1044888
1045020
1045143
1045261
1045373
1045485
1045596
1045707
1045820
1045934
1046048
1046160
1046272
1046394
1046522
1046650
1046776
1046904
1047034
1047161
1047295
1047429
1047564
1047695
1047824
1047948
1048064
1048178
1048289
1048401
1048514
1048624
1048736
1048849
1048961
1049072
1049184
1049296
1049423
1049548
1049667
1049788
1049914
1050034
1050149
1050263
1050377
1050495
1050609
1050728
1050843
1050956
1051066
1051176
1051286
1051396
1051513
1051639
1051767
1051888
1052004
1052117
1052234
1052364
1052489
1052605
1052734
1052855
1052983
1053105
1053222
1053337
1053450
1053563
1053676
1053789
1053899
1054010
1054122
1054237
1054354
1054470
1054586
1054704
1054822
1054937
1055045
1055155
1055266
1055383
1055496
1055609
1055721
1055835
1055949
1056064
1056176
1056288
1056395
1056506
1056636
1056767
1056887
1057016
1057145
1057276
1057394
1057526
1057657
1057789
1057921
1058057
1058195
1058333
1058465
1058601
1058717
1058832
1058949
1059058
1059167
1059277
1059385
1059494
1059604
1059714
1059823
1059932
1060040
1060148
1060254
1060365
1060473
1060587
1060714
1060844
1060967
1061078
1061185
1061297
1061411
1061525
1061644
1061774
1061889
1062005
1062116
1062225
1062334
1062444
1062551
1062663
1062773
1062888
1062998
1063109
1063221
1063332
1063450
1063562
1063682
1063818
1063947
1064080
1064203
1064331
1064449
1064583
1064701
1064819
1064944
1065060
1065200
1065325
1065454
1065581
1065697
1065819
1065956
1066074
1066183
1066291
1066398
1066506
1066617
1066726
1066834
1066946
1067058
1067174
1067286
1067400
1067515
1067627
1067735
1067843
1067951
1068059
1068167
1068274
1068382
1068494
1068607
1068715
1068827
1068942
1069051
1069162
1069269
1069378
1069485
1069593
1069701
1069809
1069916
1070022
1070129
1070233
1070338
1070443
1070547
1070651
1070757
1070870
1070981
1071096
1071208
1071315
1071424
1071529
1071645
1071762
1071893
1072010
1072132
1072248
1072366
1072480
1072593
1072700
1072806
1072910
1073015
1073121
1073226
1073331
1073436
1073540
1073645
1073750
1073852
1073958
1074069
1074179
1074289
1074393
1074499
1074606
1074719
1074834
1074962
1075083
1075216
1075339
1075477
1075610
1075737
1075847
1075964
1076090
1076207
1076328
1076443
1076570
1076701
1076817
1076929
1077039
1077147
1077256
1077363
1077476
1077589
1077701
1077813
1077929
1078045
1078177
1078308
1078435
1078556
1078686
1078805
1078918
1079029
1079142
1079255
1079379
1079497
1079621
1079746
1079864
1079984
1080100
1080215
1080328
1080441
1080553
1080672
1080800
1080926
1081054
1081174
1081300
1081419
1081549
1081665
1081792
1081914
1082036
1082151
1082269
1082382
1082502
1082622
1082743
1082871
1083000
1083118
1083237
1083352
1083466
1083578
1083699
1083815
1083937
1084055
1084172
1084287
1084416
1084533
1084657
1084783
1084910
1085029
1085145
1085259
1085377
1085502
1085621
1085752
1085870
1085989
1086103
1086221
1086337
1086455
1086573
1086689
1086813
1086944
1087071
1087191
1087311
1087427
1087549
1087667
1087784
1087900
1088029
1088152
1088279
1088400
1088519
1088635
1088754
1088880
1089004
1089123
1089239
1089353
1089466
1089576
1089686
1089795
1089904
1090009
1090118
1090232
1090345
1090455
1090563
1090672
1090781
1090888
1090994
1091102
1091211
1091316
1091423
1091533
1091643
1091752
1091859
1091967
1092076
1092184
1092288
1092394
1092509
1092620
1092728
1092832
1092941
1093051
1093161
1093270
1093377
1093492
1093606
1093714
1093825
1093932
1094038
1094144
1094251
1094358
1094462
1094571
1094684
1094797
1094904
1095010
1095122
1095244
1095360
1095473
1095584
1095691
1095799
1095912
1096024
1096133
1096238
1096349
1096473
1096599
1096709
1096820
1096939
1097053
1097179
1097306
1097419
1097534
1097669
1097795
1097935
1098082
1098225
1098378
1098522
1098680
1098803
1098940
1099067
1099204
1099339
1099471
1099600
1099737
1099871
1099998
1100118
1100257
1100381
1100519
1100640
1100775
1100900
1101022
1101140
1101265
1101385
1101500
1101622
1101747
1101877
1102007
1102127
1102260
1102389
1102514
1102633
1102755
1102879
1103005
1103141
1103257
1103382
1103498
1103623
1103740
1103861
1103989
1104118
1104241
1104363
1104482
1104615
1104734
1104863
1104983
1105103
1105219
1105336
1105457
1105590
1105728
1105858
1105974
1106091
1106207
1106335
1106453
1106567
1106687
1106815
1106937
1107073
1107191
1107305
1107419
1107536
1107670
1107800
1107923
1108040
1108159
1108280
1108416
1108548
1108671
1108789
1108903
1109016
1109127
1109246
1109364
1109479
1109593
1109717
1109833
1109953
1110089
1110211
1110334
1110466
1110592
1110719
1110839
1110972
1111108
1111232
1111363
1111482
1111614
1111736
1111866
1111986
1112117
1112246
1112368
1112483
1112598
1112710
1112830
1112953
1113082
1113201
1113330
1113455
1113571
1113687
1113799
1113919
1114040
1114164
1114287
1114414
1114529
1114658
1114779
1114899
1115013
1115127
1115239
1115351
1115471
1115588
1115706
1115822
1115939
1116054
1116187
1116313
1116442
1116570
1116696
1116821
1116936
1117050
1117163
1117272
1117383
1117494
1117612
1117741
1117869
1117991
1118118
1118244
1118367
1118489
1118615
1118728
1118839
1118948
1119060
1119171
1119284
1119393
1119501
1119610
1119721
1119830
1119937
1120042
1120151
1120259
1120366
1120476
1120590
1120711
1120832
1120956
1121071
1121177
1121278
1121381
1121489
1121596
1121701
1121811
1121920
1122022
1122125
1122224
1122324
1122424
1122524
1122625
1122728
1122834
1122943
1123050
1123153
1123259
1123362
1123465
1123566
1123665
1123762
1123862
1123961
1124064
1124168
1124271
1124375
1124476
1124576
1124677
1124778
1124880
1124982
1125082
1125191
1125301
1125416
1125531
1125652
1125773
1125891
1126001
1126109
1126215
1126321
1126431
1126555
1126676
1126799
1126924
1127049
1127161
1127270
1127378
1127486
1127594
1127703
1127812
1127927
1128039
1128150
1128262
1128372
1128482
1128591
1128699
1128810
1128922
1129033
1129150
1129271
1129382
1129507
1129626
1129742
1129851
1129960
1130069
1130183
1130292
1130403
1130512
1130623
1130731
1130853
1130975
1131089
1131204
1131319
1131432
1131545
1131670
1131789
1131919
1132040
1132151
1132262
1132373
1132488
1132601
1132722
1132839
1132952
1133063
1133173
1133289
1133410
1133524
1133636
1133748
1133859
1133966
1134075
1134185
1134292
1134400
1134507
1134619
1134732
1134844
1134956
1135066
1135178
1135294
1135406
1135516
1135632
1135745
1135859
1135975
1136085
1136205
1136324
1136445
1136560
1136670
1136777
1136883
1136988
1137094
1137209
1137334
1137457
1137580
1137710
1137843
1137972
1138096
1138206
1138318
1138446
1138572
1138684
1138791
1138900
1139007
1139111
1139214
1139314
1139415
1139515
1139614
1139713
1139812
1139910
1140008
1140107
1140205
1140305
1140407
1140510
1140611
1140711
1140811
1140911
1141011
1141110
1141211
1141318
1141422
1141531
1141642
1141748
1141851
1141955
1142059
1142161
1142267
1142372
1142479
1142588
1142695
1142815
1142933
1143046
1143153
1143260
1143367
1143473
1143580
1143687
1143795
1143903
1144011
1144118
1144237
1144352
1144464
1144583
1144707
1144832
1144961
1145089
1145214
1145324
1145429
1145533
1145636
1145740
1145843
1145947
1146051
1146153
1146257
1146364
1146468
1146574
1146681
1146789
1146901
1147012
1147117
1147224
1147330
1147441
1147552
1147660
1147768
1147876
1147983
1148090
1148196
1148300
1148404
1148507
1148609
1148712
1148814
1148916
1149018
1149120
1149222
1149323
1149424
1149524
1149623
1149723
1149822
1149923
1150026
1150132
1150234
1150337
1150437
1150537
1150637
1150736
1150834
1150932
1151035
1151141
1151250
1151366
1151474
1151576
1151677
1151778
1151877
1151979
1152083
1152189
1152293
1152401
1152518
1152628
1152750
1152858
1152962
1153065
1153166
1153267
1153367
1153467
1153568
1153668
1153768
1153870
1153973
1154076
1154180
1154284
1154389
1154498
1154603
1154705
1154806
1154907
1155006
1155106
1155211
1155317
1155428
1155541
1155649
1155755
1155858
1155962
1156065
1156167
1156269
1156373
1156491
1156603
1156714
1156822
1156928
1157032
1157138
1157244
1157351
1157460
1157568
1157673
1157777
1157881
1157984
1158089
1158195
1158301
1158406
1158509
1158612
1158718
1158823
1158928
1159032
1159135
1159239
1159341
1159444
1159550
1159655
1159762
1159882
1160000
1160118
1160228
1160346
1160458
1160565
1160670
1160792
1160913
1161030
1161144
1161251
1161356
1161461
1161566
1161671
1161776
1161893
1162008
1162132
1162246
1162366
1162478
1162583
1162697
1162824
1162939
1163066
1163201
1163331
1163462
1163590
1163729
1163849
1163970
1164106
1164226
1164346
1164454
1164560
1164666
1164772
1164878
1164985
1165093
1165201
1165309
1165424
1165538
1165651
1165761
1165883
1166004
1166120
1166229
1166342
1166455
1166563
1166675
1166791
1166900
1167009
1167118
1167228
1167334
1167448
1167563
1167674
1167783
1167891
1168000
1168112
1168225
1168343
1168457
1168573
1168687
1168802
1168917
1169025
1169136
1169243
1169350
1169457
1169566
1169674
1169782
1169888
1169996
1170106
1170212
1170318
1170422
1170527
1170635
1170746
1170852
1170957
1171060
1171163
1171270
1171376
1171479
1171582
1171683
1171783
1171882
1171982
1172082
1172181
1172279
1172377
1172476
1172574
1172671
1172769
1172867
1172964
1173061
1173159
1173255
1173352
1173449
1173546
1173644
1173742
1173840
1173938
1174038
1174137
1174239
1174345
1174450
1174562
1174668
1174775
1174883
1174987
1175090
1175191
1175295
1175402
1175507
1175611
1175715
1175821
1175932
1176037
1176155
1176272
1176383
1176492
1176598
1176704
1176810
1176915
1177026
1177133
1177241
1177349
1177457
1177565
1177672
1177790
1177904
1178019
1178137
1178248
1178358
1178468
1178577
1178687
1178802
1178912
1179025
1179140
1179250
1179359
1179469
1179577
1179689
1179799
1179912
1180037
1180158
1180279
1180396
1180515
1180631
1180741
1180852
1180959
1181069
1181182
1181304
1181417
1181536
1181651
1181763
1181873
1181984
1182099
1182217
1182331
1182452
1182567
1182681
1182792
1182903
1183010
1183116
1183223
1183330
1183439
1183548
1183659
1183779
1183905
1184035
1184170
1184294
1184415
1184519
1184624
1184729
1184832
1184936
1185038
1185141
1185244
1185345
1185446
1185547
1185648
1185749
1185855
1185960
1186063
1186165
1186265
1186364
1186460
1186556
1186651
1186747
1186841
1186936
1187030
1187125
1187218
1187311
1187403
1187495
1187587
1187679
1187771
1187862
1187954
1188045
1188137
1188228
1188320
1188411
1188502
1188595
1188687
1188781
1188878
1188982
1189086
1189186
1189288
1189388
1189487
1189582
1189683
1189784
1189882
1189989
1190091
1190201
1190311
1190418
1190527
1190641
1190753
1190861
1190979
1191101
1191210
1191324
1191432
1191546
1191657
1191763
1191866
1191966
1192067
1192172
1192290
1192402
1192510
1192618
1192724
1192831
1192941
1193051
1193166
1193279
1193390
1193496
1193605
1193720
1193834
1193950
1194066
1194186
1194295
1194409
1194529
1194650
1194773
1194889
1195005
1195126
1195249
1195373
1195494
1195615
1195726
1195849
1195976
1196091
1196204
1196311
1196415
1196517
1196619
1196722
1196825
1196928
1197032
1197137
1197240
1197339
1197440
1197547
1197650
1197753
1197853
1197955
1198056
1198160
1198261
1198364
1198469
1198573
1198678
1198781
1198884
1198989
1199101
1199215
1199328
1199447
1199557
1199676
1199793
1199901
1200004
1200107
1200220
1200327
1200431
1200533
1200634
1200738
1200860
1200994
1201122
1201246
1201371
1201491
1201635
1201793
1201947
1202089
1202195
1202294
1202395
1202499
1202601
1202704
1202825
1202943
1203061
1203179
1203297
1203411
1203533
1203657
1203781
1203904
1204033
1204170
1204315
1204458
1204583
1204708
1204845
1204975
1205106
1205233
1205367
1205505
1205631
1205746
1205856
1205966
1206076
1206185
1206291
1206397
1206505
1206612
1206718
1206830
1206942
1207051
1207156
1207258
1207358
1207458
1207559
1207662
1207762
1207867
1207970
1208084
1208203
1208327
1208451
1208573
1208711
1208834
1208950
1209067
1209196
1209340
1209461
1209575
1209691
1209800
1209905
1210010
1210114
1210219
1210329
1210451
1210570
1210685
1210816
1210934
1211045
1211157
1211281
1211407
1211531
1211656
1211787
1211908
1212040
1212164
1212277
1212385
1212501
1212617
1212734
1212866
1212987
1213100
1213210
1213319
1213428
1213536
1213644
1213752
1213860
1213966
1214074
1214183
1214293
1214399
1214504
1214608
1214709
1214810
1214910
1215010
1215109
1215208
1215305
1215401
1215501
1215605
1215715
1215836
1215948
1216062
1216173
1216292
1216413
1216531
1216650
1216786
1216908
1217026
1217145
1217261
1217373
1217492
1217604
1217710
1217822
1217934
1218047
1218158
1218279
1218392
1218512
1218631
1218765
1218891
1219031
1219163
1219300
1219431
1219573
1219691
1219823
1219960
1220091
1220231
1220358
1220487
1220602
1220711
1220823
1220932
1221053
1221187
1221318
1221445
1221566
1221676
1221783
1221890
1221999
1222110
1222225
1222340
1222456
1222578
1222694
1222823
1222947
1223076
1223196
1223314
1223429
1223541
1223653
1223764
1223874
1223985
1224092
1224202
1224310
1224418
1224527
1224645
1224757
1224870
1224982
1225098
1225231
1225352
1225468
1225589
1225716
1225835
1225956
1226082
1226200
1226322
1226439
1226553
1226666
1226774
1226884
1226995
1227103
1227226
1227353
1227471
1227596
1227712
1227823
1227938
1228053
1228167
1228285
1228414
1228538
1228667
1228799
1228928
1229057
1229179
1229292
1229402
1229513
1229625
1229738
1229850
1229963
1230075
1230186
1230306
1230429
1230564
1230699
1230832
1230957
1231074
1231185
1231295
1231404
1231515
1231629
1231740
1231848
1231952
1232056
1232159
1232259
1232360
1232459
1232557
1232655
1232752
1232852
1232960
1233081
1233203
1233326
1233445
1233566
1233688
1233811
1233937
1234061
1234174
1234280
1234382
1234483
1234583
1234683
1234782
1234881
1234980
1235078
1235176
1235275
1235375
1235476
1235577
1235679
1235795
1235920
1236045
1236169
1236295
1236420
1236546
1236659
1236773
1236886
1236996
1237105
1237215
1237333
1237455
1237579
1237710
1237839
1237963
1238078
1238203
1238331
1238460
1238591
1238722
1238843
1238961
1239095
1239214
1239330
1239446
1239559
1239673
1239795
1239927
1240048
1240178
1240312
1240437
1240567
1240699
1240823
1240948
1241082
1241204
1241330
1241464
1241588
1241718
1241850
1241975
1242106
1242239
1242362
1242497
1242620
1242757
1242884
1243012
1243130
1243247
1243365
1243480
1243596
1243711
1243825
1243948
1244086
1244210
1244341
1244468
1244601
1244736
1244858
1244996
1245130
1245261
1245397
1245522
1245652
1245789
1245910
1246036
1246155
1246274
1246419
1246544
1246674
1246792
1246910
1247036
1247157
1247287
1247428
1247555
1247689
1247823
1247947
1248081
1248215
1248338
1248474
1248608
1248731
1248868
1249001
1249129
1249265
1249399
1249530
1249681
1249828
1249965
1250105
1250241
1250371
1250521
1250673
1250814
1250965
1251117
1251258
1251408
1251545
1251683
1251819
1251951
1252090
1252215
1252352
1252483
1252607
1252757
1252897
1253036
1253158
1253303
1253436
1253578
1253719
1253849
1253999
1254143
1254284
1254430
1254553
1254669
1254781
1254892
1255014
1255129
1255253
1255402
1255537
1255681
1255818
1255953
1256094
1256224
1256371
1256518
1256655
1256800
1256939
1257085
1257230
1257361
1257500
1257634
1257756
1257876
1257998
1258117
1258268
1258403
1258541
1258680
1258809
1258960
1259103
1259247
1259397
1259530
1259648
1259766
1259884
1260000
1260117
1260231
1260344
1260456
1260565
1260673
1260779
1260884
1260992
1261104
1261225
1261349
1261490
1261616
1261746
1261860
1261981
1262120
1262249
1262387
1262505
1262618
1262740
1262850
1262959
1263065
1263167
1263267
1263365
1263463
1263559
1263656
1263753
1263850
1263947
1264044
1264141
1264242
1264356
1264461
1264566
1264679
1264785
1264891
1264996
1265105
1265212
1265317
1265421
1265522
1265623
1265727
1265828
1265932
1266037
1266143
1266247
1266353
1266460
1266568
1266671
1266780
1266896
1267005
1267116
1267225
1267332
1267439
1267547
1267655
1267769
1267890
1268005
1268118
1268230
1268343
1268452
1268567
1268691
1268809
1268924
1269038
1269153
1269277
1269391
1269518
1269636
1269750
1269862
1269982
1270112
1270231
1270355
1270471
1270587
1270705
1270816
1270933
1271054
1271173
1271289
1271403
1271517
1271632
1271746
1271859
1271969
1272079
1272190
1272298
1272406
1272513
1272622
1272751
1272865
1272984
1273113
1273237
1273365
1273483
1273595
1273703
1273816
1273933
1274047
1274173
1274302
1274414
1274525
1274633
1274742
1274851
1274958
1275073
1275188
1275301
1275412
1275523
1275634
1275745
1275868
1275987
1276117
1276240
1276352
1276473
1276592
1276718
1276850
1276974
1277093
1277208
1277323
1277433
1277547
1277663
1277777
1277896
1278009
1278132
1278256
1278376
1278512
1278633
1278748
1278861
1278976
1279092
1279207
1279336
1279452
1279567
1279683
1279798
1279912
1280025
1280136
1280253
1280366
1280481
1280595
1280708
1280823
1280937
1281056
1281179
1281295
1281409
1281542
1281656
1281775
1281891
1282005
1282117
1282228
1282343
1282459
1282583
1282718
1282842
1282970
1283096
1283221
1283339
1283451
1283570
1283686
1283797
1283907
1284016
1284124
1284230
1284343
1284456
1284568
1284681
1284792
1284900
1285008
1285121
1285236
1285357
1285490
1285611
1285735
1285850
1285961
1286071
1286177
1286288
1286401
1286510
1286623
1286734
1286844
1286955
1287065
1287174
1287285
1287395
1287516
1287630
1287750
1287863
1287978
1288093
1288204
1288318
1288430
1288545
1288658
1288768
1288882
1288994
1289106
1289218
1289336
1289451
1289563
1289672
1289781
1289888
1290002
1290119
1290233
1290346
1290455
1290567
1290683
1290811
1290940
1291073
1291204
1291338
1291471
1291617
1291751
1291890
1292008
1292117
1292227
1292336
1292445
1292554
1292662
1292771
1292889
1293005
1293122
1293235
1293342
1293451
1293559
1293666
1293774
1293886
1293995
1294105
1294213
1294321
1294428
1294537
1294647
1294765
1294889
1295014
1295131
1295243
1295353
1295461
1295568
1295674
1295778
1295892
1296012
1296138
1296249
1296357
1296466
1296574
1296679
1296785
1296890
1296994
1297099
1297207
1297315
1297422
1297529
1297637
1297744
1297853
1297969
1298088
1298216
1298339
1298462
1298588
1298710
1298822
1298936
1299059
1299186
1299298
1299404
1299510
1299622
1299727
1299833
1299941
1300044
1300146
1300247
1300348
1300448
1300546
1300645
1300744
1300842
1300939
1301037
1301135
1301233
1301330
1301427
1301524
1301621
1301717
1301814
1301910
1302007
1302103
1302199
1302294
1302391
1302488
1302584
1302681
1302776
1302872
1302967
1303062
1303157
1303250
1303345
1303444
1303549
1303656
1303765
1303871
1303972
1304072
1304172
1304272
1304371
1304469
1304564
1304661
1304756
1304852
1304947
1305043
1305140
1305235
1305331
1305430
1305527
1305624
1305721
1305816
1305911
1306006
1306100
1306194
1306288
1306383
1306476
1306569
1306663
1306759
1306856
1306955
1307055
1307152
1307250
1307345
1307440
1307535
1307630
1307724
1307821
1307920
1308017
1308113
1308209
1308304
1308400
1308498
1308600
1308706
1308817
1308934
1309055
1309165
1309272
1309372
1309470
1309569
1309666
1309763
1309860
1309956
1310052
1310149
1310244
1310341
1310437
1310532
1310629
1310732
1310831
1310932
1311033
1311133
1311234
1311333
1311433
1311532
1311629
1311729
1311834
1311935
1312044
1312155
1312261
1312365
1312469
1312570
1312675
1312781
1312889
1312997
1313104
1313210
1313318
1313424
1313532
1313639
1313746
1313852
1313960
1314068
1314176
1314289
1314397
1314513
1314626
1314736
1314846
1314956
1315064
1315172
1315280
1315388
1315495
1315608
1315727
1315854
1315978
1316098
1316213
1316329
1316445
1316574
1316695
1316806
1316916
1317024
1317129
1317235
1317339
1317442
1317543
1317644
1317742
1317841
1317939
1318036
1318132
1318229
1318327
1318428
1318530
1318629
1318728
1318825
1318921
1319015
1319109
1319203
1319300
1319395
1319490
1319585
1319679
1319772
1319866
1319966
1320065
1320163
1320262
1320359
1320459
1320560
1320665
1320772
1320874
1320974
1321072
1321169
1321267
1321367
1321470
1321576
1321679
1321784
1321886
1321987
1322088
1322186
1322287
1322388
1322488
1322587
1322686
1322783
1322885
1322993
1323095
1323204
1323318
1323432
1323550
1323669
1323798
1323919
1324047
1324159
1324279
1324393
1324502
1324603
1324706
1324807
1324907
1325009
1325109
1325210
1325310
1325411
1325519
1325632
1325745
1325860
1325970
1326081
1326187
1326291
1326394
1326496
1326596
1326696
1326797
1326897
1326996
1327096
1327193
1327291
1327389
1327486
1327584
1327685
1327787
1327891
1328001
1328108
1328213
1328323
1328433
1328539
1328642
1328747
1328852
1328960
1329066
1329173
1329279
1329384
1329489
1329592
1329693
1329795
1329896
1329995
1330095
1330199
1330303
1330404
1330508
1330615
1330725
1330837
1330944
1331049
1331157
1331267
1331375
1331480
1331585
1331687
1331788
1331886
1331985
1332080
1332177
1332278
1332380
1332482
1332583
1332681
1332780
1332877
1332975
1333074
1333172
1333270
1333368
1333464
1333559
1333656
1333751
1333846
1333940
1334034
1334128
1334223
1334318
1334412
1334506
1334600
1334693
1334787
1334884
1334982
1335078
1335175
1335276
1335382
1335483
1335580
1335678
1335773
1335868
1335962
1336056
1336149
1336242
1336335
1336429
1336523
1336618
1336713
1336809
1336911
1337021
1337133
1337252
1337360
1337467
1337568
1337666
1337764
1337860
1337959
1338059
1338158
1338262
1338365
1338469
1338577
1338683
1338787
1338893
1338995
1339100
1339203
1339304
1339404
1339503
1339599
1339696
1339793
1339889
1339986
1340086
1340195
1340305
1340409
1340509
1340609
1340706
1340803
1340900
1340999
1341099
1341200
1341301
1341399
1341496
1341594
1341691
1341796
1341913
1342028
1342147
1342260
1342377
1342498
1342605
1342708
1342809
1342908
1343008
1343106
1343203
1343299
1343393
1343488
1343584
1343679
1343774
1343869
1343964
1344058
1344152
1344244
1344337
1344428
1344521
1344612
1344705
1344797
1344889
1344983
1345082
1345192
1345300
1345412
1345522
1345641
1345765
1345870
1345970
1346066
1346163
1346264
1346373
1346484
1346590
1346693
1346795
1346895
1346999
1347108
1347214
1347316
1347418
1347517
1347616
1347717
1347820
1347926
1348041
1348150
1348256
1348358
1348460
1348560
1348658
1348754
1348851
1348948
1349046
1349145
1349244
1349349
1349458
1349570
1349678
1349785
1349891
1350002
1350115
1350228
1350342
1350452
1350558
1350661
1350759
1350858
1350954
1351049
1351144
1351240
1351335
1351430
1351525
1351619
1351713
1351807
1351901
1351995
1352092
1352193
1352291
1352388
1352484
1352579
1352675
1352770
1352863
1352956
1353050
1353144
1353240
1353336
1353432
1353529
1353629
1353727
1353827
1353928
1354028
1354135
1354243
1354354
1354462
1354573
1354690
1354817
1354935
1355046
1355150
1355250
1355350
1355448
1355545
1355644
1355743
1355841
1355939
1356036
1356133
1356229
1356326
1356423
1356522
1356625
1356726
1356826
1356924
1357020
1357116
1357210
1357305
1357400
1357495
1357591
1357691
1357792
1357891
1357993
1358099
1358205
1358305
1358405
1358506
1358612
1358728
1358843
1358949
1359050
1359151
1359250
1359348
1359444
1359539
1359634
1359730
1359826
1359928
1360038
1360153
1360272
1360390
1360499
1360615
1360730
1360842
1360961
1361074
1361183
1361288
1361391
1361494
1361595
1361694
1361792
1361892
1361993
1362098
1362212
1362335
1362463
1362587
1362708
1362828
1362950
1363070
1363199
1363323
1363434
1363538
1363646
1363767
1363882
1364004
1364114
1364220
1364325
1364429
1364531
1364638
1364757
1364875
1364990
1365104
1365214
1365322
1365425
1365528
1365631
1365737
1365845
1365958
1366077
1366202
1366321
1366443
1366558
1366666
1366770
1366870
1366968
1367065
1367161
1367256
1367350
1367444
1367537
1367631
1367733
1367849
1367971
1368094
1368215
1368344
1368475
1368608
1368738
1368874
1369016
1369153
1369288
1369423
1369558
1369694
1369821
1369934
1370040
1370152
1370261
1370368
1370472
1370572
1370673
1370773
1370873
1370974
1371085
1371202
1371317
1371439
1371554
1371672
1371785
1371895
1372006
1372114
1372219
1372322
1372421
1372520
1372618
1372715
1372808
1372903
1372999
1373095
1373190
1373284
1373381
1373488
1373606
1373725
1373853
1373971
1374078
1374176
1374275
1374372
1374465
1374560
1374653
1374746
1374840
1374934
1375028
1375122
1375216
1375310
1375405
1375499
1375593
1375685
1375778
1375872
1375969
1376070
1376180
1376287
1376404
1376521
1376631
1376738
1376848
1376951
1377058
1377165
1377271
1377375
1377476
1377580
1377680
1377778
1377874
1377970
1378065
1378160
1378254
1378348
1378441
1378535
1378628
1378721
1378814
1378906
1378999
1379091
1379184
1379277
1379372
1379467
1379562
1379660
1379767
1379881
1379988
1380095
1380205
1380306
1380404
1380500
1380595
1380695
1380801
1380905
1381014
1381117
1381216
1381316
1381415
1381511
1381606
1381700
1381795
1381896
1381995
1382097
1382199
1382297
1382395
1382497
1382596
1382693
1382790
1382891
1382993
1383091
1383197
1383300
1383407
1383522
1383634
1383740
1383840
1383939
1384035
1384130
1384225
1384319
1384413
1384507
1384601
1384696
1384791
1384885
1384978
1385071
1385164
1385256
1385348
1385440
1385534
1385627
1385727
1385835
1385942
1386046
1386158
1386269
1386381
1386494
1386609
1386719
1386829
1386934
1387040
1387145
1387247
1387347
1387443
1387539
1387636
1387736
1387835
1387930
1388029
1388137
1388239
1388347
1388453
1388562
1388673
1388778
1388880
1388979
1389078
1389188
1389304
1389427
1389543
1389670
1389789
1389918
1390036
1390163
1390281
1390412
1390529
1390655
1390784
1390908
1391033
1391143
1391250
1391355
1391459
1391567
1391673
1391776
1391879
1391981
1392084
1392186
1392286
1392387
1392487
1392586
1392685
1392782
1392880
1392981
1393086
1393189
1393289
1393388
1393485
1393581
1393677
1393787
1393909
1394019
1394124
1394224
1394325
1394430
1394538
1394652
1394763
1394869
1394974
1395075
1395175
1395273
1395369
1395464
1395565
1395667
1395767
1395865
1395962
1396059
1396155
1396251
1396347
1396444
1396548
1396656
1396766
1396882
1397005
1397121
1397242
1397363
1397478
1397592
1397707
1397829
1397954
1398077
1398201
1398325
1398438
1398551
1398672
1398796
1398925
1399048
1399175
1399296
1399416
1399531
1399641
1399749
1399856
1399962
1400072
1400184
1400301
1400416
1400528
1400639
1400746
1400851
1400956
1401061
1401166
1401269
1401378
1401484
1401592
1401704
1401815
1401922
1402030
1402139
1402249
1402353
1402457
1402559
1402659
1402758
1402855
1402959
1403080
1403199
1403307
1403419
1403527
1403632
1403736
1403837
1403936
1404033
1404128
1404223
1404319
1404414
1404508
1404603
1404697
1404791
1404884
1404978
1405071
1405164
1405260
1405356
1405453
1405550
1405645
1405738
1405835
1405942
1406045
1406144
1406239
1406337
1406435
1406535
1406639
1406743
1406846
1406947
1407047
1407147
1407248
1407348
1407449
1407553
1407661
1407774
1407887
1408008
1408131
1408256
1408381
1408505
1408627
1408747
1408853
1408955
1409057
1409159
1409260
1409358
1409455
1409553
1409650
1409746
1409842
1409937
1410030
1410124
1410218
1410311
1410404
1410496
1410588
1410682
1410778
1410874
1410971
1411068
1411164
1411263
1411361
1411459
1411559
1411661
1411759
1411858
1411959
1412056
1412154
1412250
1412345
1412437
1412529
1412621
1412713
1412803
1412892
1412982
1413071
1413161
1413249
1413338
1413426
1413514
1413602
1413690
1413779
1413867
1413955
1414044
1414132
1414223
1414316
1414411
1414505
1414597
1414688
1414780
1414872
1414964
1415056
1415149
1415240
1415332
1415422
1415513
1415604
1415693
1415783
1415871
1415961
1416052
1416144
1416237
1416331
1416428
1416526
1416625
1416721
1416816
1416912
1417009
1417105
1417199
1417292
1417384
1417476
1417569
1417664
1417763
1417862
1417963
1418066
1418178
1418288
1418403
1418518
1418634
1418756
1418876
1418985
1419107
1419229
1419351
1419468
1419581
1419708
1419841
1419966
1420097
1420210
1420329
1420440
1420563
1420676
1420799
1420933
1421055
1421181
1421319
1421445
1421576
1421710
1421838
1421957
1422091
1422228
1422364
1422484
1422607
1422731
1422857
1422984
1423123
1423250
1423396
1423540
1423679
1423835
1423964
1424093
1424227
1424356
1424469
1424588
1424706
1424835
1424967
1425107
1425231
1425346
1425461
1425573
1425685
1425793
1425909
1426039
1426173
1426293
1426409
1426520
1426636
1426749
1426861
1426967
1427074
1427181
1427304
1427420
1427539
1427655
1427769
1427890
1428011
1428132
1428254
1428366
1428476
1428583
1428686
1428788
1428888
1428999
1429111
1429234
1429364
1429495
1429632
1429762
1429901
1430028
1430160
1430305
1430434
1430552
1430659
1430765
1430870
1430974
1431075
1431176
1431278
1431379
1431485
1431594
1431707
1431821
1431936
1432069
1432191
1432320
1432440
1432574
1432697
1432805
1432911
1433014
1433116
1433216
1433319
1433433
1433545
1433677
1433793
1433901
1434007
1434109
1434209
1434308
1434410
1434515
1434623
1434730
1434840
1434945
1435063
1435176
1435287
1435395
1435505
1435612
1435718
1435821
1435922
1436021
1436119
1436217
1436313
1436409
1436511
1436612
1436713
1436818
1436919
1437018
1437117
1437226
1437334
1437448
1437574
1437697
1437819
1437927
1438032
1438137
1438242
1438345
1438447
1438552
1438663
1438788
1438913
1439032
1439157
1439291
1439417
1439530
1439637
1439741
1439845
1439955
1440084
1440217
1440334
1440446
1440554
1440661
1440765
1440868
1440977
1441089
1441205
1441316
1441433
1441550
1441662
1441769
1441875
1441981
1442085
1442191
1442300
1442424
1442556
1442679
1442795
1442909
1443022
1443130
1443238
1443347
1443459
1443570
1443677
1443782
1443886
1443988
1444089
1444190
1444290
1444391
1444495
1444597
1444699
1444806
1444913
1445023
1445130
1445235
1445341
1445447
1445549
1445650
1445749
1445851
1445958
1446067
1446185
1446303
1446429
1446557
1446679
1446798
1446917
1447034
1447141
1447246
1447350
1447452
1447558
1447670
1447786
1447907
1448028
1448156
1448291
1448422
1448550
1448662
1448763
1448865
1448966
1449065
1449163
1449260
1449356
1449452
1449547
1449642
1449737
1449831
1449926
1450019
1450112
1450205
1450298
1450391
1450484
1450576
1450668
1450759
1450849
1450939
1451028
1451117
1451207
1451296
1451386
1451476
1451565
1451655
1451748
1451839
1451929
1452019
1452108
1452198
1452289
1452380
1452470
1452561
1452651
1452742
1452835
1452931
1453024
1453118
1453213
1453309
1453402
1453495
1453587
1453680
1453775
1453873
1453973
1454073
1454175
1454276
1454376
1454476
1454581
1454688
1454799
1454912
1455024
1455130
1455235
1455341
1455445
1455544
1455643
1455742
1455839
1455937
1456038
1456141
1456246
1456350
1456453
1456553
1456656
1456765
1456882
1457001
1457120
1457238
1457357
1457482
1457595
1457700
1457804
1457908
1458011
1458113
1458214
1458314
1458413
1458518
1458622
1458725
1458826
1458927
1459031
1459137
1459246
1459358
1459468
1459576
1459682
1459787
1459890
1459991
1460092
1460192
1460292
1460390
1460489
1460589
1460694
1460810
1460940
1461071
1461194
1461315
1461437
1461564
1461695
1461830
1461953
1462082
1462227
1462353
1462489
1462617
1462729
1462838
1462966
1463112
1463235
1463356
1463484
1463609
1463747
1463875
1463992
1464112
1464236
1464362
1464489
1464623
1464756
1464891
1465011
1465126
1465237
1465345
1465458
1465576
1465694
1465815
1465939
1466061
1466176
1466308
1466431
1466557
1466674
1466789
1466898
1467005
1467110
1467222
1467336
1467463
1467587
1467708
1467845
1467980
1468110
1468226
1468335
1468440
1468543
1468645
1468746
1468846
1468948
1469048
1469148
1469246
1469350
1469456
1469561
1469673
1469798
1469940
1470077
1470222
1470372
1470536
1470702
1470821
1470923
1471020
1471116
1471215
1471316
1471418
1471518
1471619
1471721
1471825
1471946
1472073
1472210
1472351
1472486
1472633
1472778
1472925
1473068
1473184
1473290
1473393
1473495
1473598
1473701
1473811
1473929
1474068
1474207
1474350
1474491
1474636
1474782
1474930
1475045
1475154
1475262
1475368
1475474
1475581
1475706
1475850
1475994
1476136
1476254
1476369
1476479
1476589
1476699
1476808
1476918
1477028
1477135
1477243
1477351
1477462
1477575
1477713
1477838
1477961
1478075
1478185
1478296
1478405
1478513
1478620
1478725
1478837
1478951
1479060
1479167
1479272
1479375
1479476
1479577
1479678
1479777
1479877
1479975
1480073
1480170
1480266
1480361
1480456
1480550
1480643
1480735
1480826
1480918
1481008
1481099
1481189
1481279
1481369
1481459
1481548
1481638
1481727
1481817
1481906
1481999
1482091
1482184
1482277
1482368
1482459
1482551
1482642
1482733
1482825
1482915
1483007
1483100
1483194
1483288
1483382
1483480
1483584
1483686
1483799
1483905
1484003
1484098
1484195
1484300
1484415
1484540
1484664
1484792
1484916
1485034
1485147
1485255
1485360
1485460
1485559
1485660
1485760
1485860
1485960
1486059
1486159
1486259
1486358
1486458
1486557
1486658
1486760
1486877
1487001
1487115
1487237
1487361
1487485
1487611
1487727
1487857
1487985
1488108
1488219
1488346
1488463
1488575
1488685
1488790
1488897
1489012
1489127
1489235
1489343
1489451
1489559
1489666
1489772
1489891
1490021
1490150
1490282
1490411
1490534
1490646
1490755
1490864
1490971
1491079
1491187
1491295
1491403
1491510
1491633
1491763
1491888
1492011
1492135
1492251
1492367
1492497
1492620
1492741
1492871
1492997
1493123
1493253
1493380
1493504
1493628
1493749
1493882
1494015
1494136
1494273
1494401
1494534
1494662
1494789
1494923
1495047
1495165
1495292
1495411
1495529
1495647
1495763
1495876
1495992
1496107
1496219
1496331
1496439
1496548
1496656
1496762
1496866
1496969
1497072
1497174
1497275
1497375
1497473
1497574
1497675
1497773
1497872
1497971
1498070
1498168
1498269
1498377
1498503
1498625
1498758
1498873
1498980
1499085
1499189
1499291
1499395
1499496
1499598
1499699
1499799
1499897
1499996
1500097
1500200
1500302
1500412
1500522
1500630
1500735
1500839
1500944
1501050
1501159
1501281
1501408
1501527
1501637
1501750
1501862
1501970
1502083
1502200
1502313
1502421
1502528
1502635
1502742
1502854
1502966
1503082
1503197
1503308
1503418
1503533
1503645
1503762
1503875
1503999
1504117
1504229
1504339
1504448
1504556
1504663
1504770
1504875
1504981
1505086
1505201
1505321
1505438
1505549
1505660
1505767
1505881
1505993
1506105
1506225
1506343
1506454
1506569
1506687
1506802
1506916
1507026
1507135
1507245
1507351
1507465
1507581
1507705
1507827
1507939
1508050
1508157
1508265
1508379
1508499
1508629
1508745
1508856
1508967
1509076
1509185
1509289
1509394
1509500
1509605
1509713
1509824
1509930
1510036
1510141
1510246
1510350
1510458
1510574
1510684
1510793
1510907
1511020
1511134
1511244
1511356
1511464
1511576
1511690
1511800
1511919
1512047
1512163
1512275
1512384
1512499
1512609
1512721
1512834
1512948
1513059
1513174
1513296
1513422
1513557
1513672
1513781
1513892
1514001
1514107
1514220
1514331
1514442
1514549
1514657
1514764
1514870
1514977
1515083
1515189
1515294
1515397
1515501
1515604
1515707
1515812
1515916
1516023
1516128
1516231
1516342
1516453
1516560
1516665
1516767
1516872
1516975
1517077
1517178
1517278
1517378
1517481
1517586
1517698
1517813
1517931
1518040
1518147
1518258
1518363
1518468
1518577
1518684
1518788
1518888
1518986
1519083
1519180
1519275
1519370
1519465
1519559
1519653
1519747
1519840
1519934
1520027
1520122
1520216
1520311
1520405
1520499
1520595
1520688
1520781
1520874
1520967
1521059
1521151
1521243
1521334
1521426
1521518
1521610
1521704
1521801
1521904
1522009
1522118
1522229
1522345
1522456
1522560
1522665
1522766
1522866
1522964
1523060
1523155
1523250
1523342
1523435
1523528
1523621
1523712
1523805
1523901
1523995
1524090
1524188
1524290
1524387
1524483
1524577
1524672
1524765
1524858
1524949
1525042
1525134
1525227
1525319
1525411
1525502
1525595
1525687
1525779
1525873
1525967
1526063
1526160
1526260
1526360
1526457
1526558
1526664
1526766
1526863
1526967
1527068
1527168
1527270
1527372
1527472
1527574
1527679
1527786
1527895
1528009
1528119
1528231
1528342
1528448
1528550
1528652
1528757
1528859
1528959
1529057
1529158
1529265
1529371
1529476
1529581
1529687
1529792
1529899
1530011
1530123
1530234
1530348
1530461
1530577
1530689
1530799
1530906
1531012
1531118
1531224
1531327
1531433
1531541
1531645
1531744
1531841
1531936
1532032
1532130
1532228
1532327
1532428
1532538
1532649
1532753
1532855
1532966
1533080
1533188
1533292
1533396
1533497
1533595
1533694
1533792
1533894
1533993
1534098
1534200
1534305
1534408
1534512
1534614
1534717
1534821
1534921
1535020
1535120
1535220
1535319
1535416
1535512
1535608
1535708
1535813
1535913
1536013
1536121
1536232
1536343
1536449
1536561
1536670
1536776
1536880
1536980
1537083
1537188
1537293
1537402
1537506
1537612
1537725
1537834
1537952
1538064
1538176
1538284
1538389
1538490
1538589
1538687
1538786
1538886
1538985
1539084
1539182
1539280
1539377
1539473
1539572
1539674
1539774
1539874
1539973
1540076
1540181
1540284
1540398
1540515
1540627
1540742
1540861
1540972
1541078
1541182
1541285
1541386
1541485
1541585
1541684
1541784
1541884
1541983
1542082
1542182
1542282
1542385
1542504
1542627
1542748
1542865
1542989
1543111
1543224
1543334
1543448
1543558
1543664
1543770
1543875
1543978
1544084
1544198
1544310
1544420
1544528
1544648
1544778
1544903
1545018
1545145
1545270
1545396
1545521
1545643
1545762
1545876
1545984
1546092
1546200
1546307
1546414
1546520
1546627
1546737
1546845
1546954
1547064
1547181
1547305
1547427
1547545
1547665
1547787
1547906
1548025
1548143
1548258
1548377
1548495
1548615
1548737
1548856
1548972
1549096
1549223
1549349
1549471
1549594
1549717
1549842
1549968
1550087
1550222
1550351
1550481
1550609
1550731
1550865
1550986
1551113
1551241
1551368
1551499
1551620
1551738
1551854
1551971
1552084
1552206
1552329
1552454
1552580
1552716
1552840
1552966
1553090
1553217
1553352
1553475
1553598
1553736
1553866
1553986
1554119
1554245
1554375
1554499
1554622
1554737
1554854
1554968
1555084
1555200
1555313
1555427
1555543
1555656
1555798
1555935
1556060
1556194
1556340
1556472
1556601
1556734
1556852
1556986
1557127
1557246
1557380
1557513
1557639
1557756
1557868
1557978
1558085
1558193
1558299
1558406
1558512
1558619
1558725
1558830
1558935
1559041
1559145
1559250
1559375
1559510
1559634
1559768
1559895
1560025
1560157
1560303
1560447
1560572
1560719
1560865
1561003
1561126
1561274
1561396
1561541
1561673
1561812
1561933
1562057
1562172
1562302
1562449
1562572
1562708
1562841
1562969
1563113
1563251
1563375
1563518
1563656
1563779
1563916
1564050
1564179
1564307
1564441
1564571
1564696
1564828
1564967
1565093
1565225
1565364
1565491
1565621
1565764
1565900
1566025
1566166
1566299
1566428
1566563
1566696
1566826
1566949
1567072
1567214
1567337
1567474
1567599
1567724
1567866
1568004
1568132
1568276
1568415
1568538
1568678
1568812
1568936
1569076
1569212
1569336
1569464
1569587
1569708
1569827
1569974
1570111
1570235
1570376
1570513
1570651
1570778
1570920
1571053
1571177
1571316
1571450
1571575
1571716
1571850
1571975
1572115
1572252
1572379
1572521
1572660
1572789
1572932
1573075
1573220
1573349
1573493
1573633
1573758
1573903
1574040
1574166
1574312
1574460
1574594
1574747
1574893
1575022
1575167
1575297
1575424
1575568
1575708
1575834
1575983
1576125
1576258
1576404
1576545
1576688
1576826
1576967
1577101
1577242
1577390
1577525
1577672
1577815
1577941
1578077
1578204
1578330
1578457
1578614
1578744
1578875
1578996
1579112
1579223
1579334
1579442
1579549
1579655
1579760
1579865
1579969
1580071
1580174
1580280
1580392
1580525
1580677
1580821
1580951
1581106
1581263
1581428
1581577
1581700
1581836
1581999
1582119
1582280
1582436
1582568
1582721
1582868
1582990
1583134
1583275
1583402
1583543
1583678
1583807
1583950
1584078
1584214
1584361
1584487
1584612
1584731
1584846
1585001
1585147
1585277
1585412
1585543
1585688
1585818
1585962
1586105
1586246
1586385
1586532
1586674
1586805
1586938
1587064
1587184
1587313
1587452
1587576
1587729
1587872
1587998
1588143
1588282
1588411
1588564
1588716
1588848
1589002
1589144
1589274
1589415
1589553
1589680
1589810
1589947
1590073
1590217
1590363
1590510
1590655
1590805
1590940
1591090
1591234
1591364
1591511
1591648
1591772
1591905
1592033
1592156
1592313
1592459
1592596
1592726
1592847
1592997
1593141
1593271
1593421
1593568
1593716
1593863
1594017
1594171
1594302
1594460
1594606
1594732
1594882
1595035
1595167
1595316
1595451
1595584
1595735
1595862
1596008
1596138
1596277
1596415
1596550
1596704
1596856
1596991
1597144
1597295
1597430
1597586
1597721
1597869
1597993
1598117
1598239
1598356
1598475
1598592
1598706
1598819
1598964
1599119
1599254
1599388
1599541
1599694
1599849
1599986
1600128
1600291
1600435
1600565
1600741
1600892
1601016
1601181
1601331
1601457
1601614
1601773
1601921
1602070
1602224
1602364
1602492
1602647
1602779
1602899
1603040
1603179
1603325
1603462
1603597
1603748
1603883
1604042
1604192
1604315
1604432
1604542
1604653
1604777
1604923
1605054
1605213
1605363
1605498
1605649
1605799
1605949
1606080
1606237
1606386
1606530
1606658
1606811
1606954
1607085
1607234
1607377
1607518
1607642
1607787
1607927
1608053
1608201
1608355
1608500
1608645
1608792
1608940
1609068
1609223
1609372
1609504
1609658
1609806
1609934
1610085
1610230
1610359
1610513
1610675
1610810
1610969
1611116
1611247
1611406
1611562
1611694
1611856
1612008
1612137
1612275
1612403
1612558
1612714
1612858
1613017
1613168
1613316
1613449
1613613
1613748
1613902
1614048
1614180
1614336
1614484
1614615
1614774
1614929
1615081
1615212
1615366
1615514
1615652
1615776
1615925
1616070
1616219
1616373
1616521
1616654
1616807
1616941
1617089
1617240
1617392
1617523
1617678
1617829
1617958
1618114
1618250
1618403
1618551
1618681
1618833
1618969
1619115
1619259
1619405
1619547
1619689
1619823
1619987
1620145
1620280
1620437
1620584
1620715
1620871
1621017
1621150
1621322
1621478
1621609
1621763
1621911
1622060
1622202
1622348
1622483
1622633
1622783
1622936
1623087
1623232
1623364
1623514
1623663
1623798
1623958
1624108
1624242
1624399
1624554
1624687
1624855
1625010
1625160
1625313
1625449
1625610
1625764
1625901
1626054
1626191
1626317
1626463
1626595
1626762
1626901
1627055
1627205
1627335
1627493
1627651
1627789
1627954
1628115
1628250
1628409
1628560
1628692
1628861
1629020
1629153
1629304
1629448
1629576
1629730
1629890
1630043
1630191
1630343
1630495
1630629
1630790
1630948
1631082
1631241
1631396
1631527
1631684
1631838
1631970
1632133
1632286
1632420
1632582
1632734
1632867
1633030
1633181
1633320
1633444
1633607
1633739
1633888
1634033
1634165
1634327
1634465
1634633
1634796
1634940
1635114
1635273
1635420
1635579
1635711
1635856
1636009
1636146
1636308
1636466
1636594
1636735
1636865
1636981
1637096
1637212
1637346
1637492
1637654
1637806
1637938
1638092
1638239
1638371
1638522
1638655
1638784
1638916
1639040
1639163
1639324
1639460
1639606
1639750
1639879
1640032
1640176
1640311
1640462
1640594
1640749
1640898
1641032
1641190
1641343
1641472
1641630
1641781
1641908
1642058
1642195
1642339
1642481
1642612
1642768
1642918
1643047
1643201
1643339
1643480
1643639
1643776
1643937
1644088
1644219
1644363
1644488
1644611
1644730
1644856
1645010
1645156
1645312
1645466
1645620
1645785
1645948
1646088
1646260
1646423
1646549
1646714
1646878
1647007
1647166
1647317
1647441
1647609
1647763
1647900
1648052
1648201
1648325
1648480
1648622
1648747
1648896
1649044
1649170
1649298
1649429
1649561
1649705
1649865
1650014
1650164
1650315
1650472
1650623
1650785
1650934
1651077
1651241
1651395
1651536
1651700
1651830
1651951
1652066
1652178
1652302
1652433
1652602
1652743
1652884
1653043
1653177
1653350
1653517
1653671
1653849
1654024
1654167
1654342
1654490
1654613
1654803
1654948
1655084
1655270
1655435
1655566
1655728
1655878
1656007
1656166
1656319
1656456
1656623
1656768
1656903
1657071
1657223
1657366
1657523
1657657
1657784
1657916
1658053
1658197
1658353
1658487
1658646
1658803
1658963
1659135
1659289
1659463
1659613
1659759
1659921
1660069
1660214
1660369
1660516
1660656
1660807
1660964
1661091
1661251
1661402
1661531
1661682
1661830
1661969
1662110
1662255
1662397
1662541
1662703
1662844
1663007
1663166
1663300
1663468
1663632
1663768
1663925
1664083
1664217
1664378
1664537
1664668
1664819
1664966
1665105
1665269
1665430
1665562
1665722
1665875
1666022
1666184
1666341
1666496
1666661
1666795
1666953
1667102
1667253
1667409
1667553
1667707
1667879
1668026
1668193
1668355
1668501
1668667
1668826
1668971
1669132
1669278
1669440
1669604
1669751
1669905
1670065
1670199
1670360
1670521
1670657
1670814
1670973
1671108
1671264
1671419
1671563
1671724
1671889
1672039
1672208
1672381
1672534
1672702
1672856
1673003
1673161
1673312
1673465
1673617
1673762
1673916
1674079
1674242
1674399
1674565
1674720
1674884
1675051
1675200
1675365
1675525
1675657
1675808
1675959
1676098
1676251
1676404
1676546
1676699
1676851
1677011
1677179
1677317
1677482
1677642
1677775
1677937
1678085
1678241
1678402
1678549
1678706
1678846
1679018
1679183
1679336
1679504
1679645
1679813
1679975
1680128
1680281
1680412
1680568
1680714
1680866
1681020
1681163
1681324
1681482
1681624
1681767
1681904
1682050
1682185
1682350
1682507
1682642
1682775
1682906
1683050
1683207
1683359
1683507
1683667
1683823
1683977
1684136
1684272
1684407
1684535
1684669
1684806
1684928
1685067
1685211
1685352
1685503
1685662
1685820
1685985
1686142
1686306
1686477
1686619
1686791
1686965
1687107
1687282
1687433
1687581
1687735
1687865
1687999
1688126
1688246
1688382
1688545
1688689
1688847
1688998
1689154
1689309
1689454
1689614
1689777
1689916
1690087
1690253
1690396
1690557
1690711
1690856
1691016
1691176
1691326
1691482
1691629
1691783
1691943
1692092
1692251
1692410
1692552
1692716
1692878
1693013
1693177
1693337
1693479
1693641
1693803
1693953
1694114
1694265
1694420
1694583
1694735
1694889
1695057
1695212
1695380
1695555
1695698
1695865
1696023
1696169
1696339
1696484
1696652
1696814
1696947
1697099
1697236
1697389
1697540
1697674
1697826
1697974
1698118
1698276
1698429
1698583
1698748
1698892
1699068
1699232
1699383
1699541
1699705
1699852
1700011
1700170
1700312
1700472
1700629
1700762
1700912
1701062
1701199
1701353
1701506
1701656
1701820
1701982
1702124
1702293
1702459
1702598
1702756
1702908
1703050
1703204
1703354
1703501
1703650
1703790
1703942
1704089
1704222
1704382
1704541
1704682
1704857
1705023
1705190
1705365
1705512
1705701
1705871
1706022
1706210
1706353
1706524
1706693
1706833
1707000
1707164
1707305
1707469
1707623
1707762
1707890
1708017
1708179
1708338
1708491
1708658
1708801
1708984
1709149
1709348
1709506
1709732
1709883
1710094
1710241
1710407
1710584
1710723
1710935
1711081
1711258
1711415
1711553
1711735
1711860
1712038
1712207
1712352
1712540
1712680
1712860
1713014
1713191
1713366
1713507
1713686
1713856
1713993
1714153
1714317
1714461
1714619
1714751
1714899
1715045
1715181
1715359
1715517
1715683
1715854
1715998
1716177
1716324
1716498
1716657
1716807
1716961
1717086
1717207
1717369
1717493
1717611
1717723
1717833
1717943
1718052
1718166
1718313
1718466
1718623
1718780
1718937
1719095
1719259
1719425
1719587
1719743
1719909
1720065
1720217
1720367
1720498
1720622
1720742
1720858
1720973
1721085
1721197
1721311
1721424
1721539
1721657
1721777
1721942
1722083
1722213
1722358
1722505
1722637
1722795
1722949
1723101
1723256
1723431
1723611
1723754
1723945
1724112
1724283
1724433
1724630
1724797
1724930
1725101
1725254
1725384
1725554
1725706
1725837
1725961
1726084
1726210
1726376
1726521
1726676
1726834
1726980
1727140
1727308
1727458
1727625
1727776
1727930
1728101
1728240
1728403
1728558
1728706
1728860
1729005
1729154
1729305
1729442
1729601
1729749
1729880
1730038
1730183
1730319
1730472
1730617
1730773
1730933
1731076
1731238
1731402
1731555
1731721
1731875
1732027
1732184
1732321
1732493
1732654
1732797
1732963
1733110
1733263
1733419
1733562
1733723
1733878
1734033
1734194
1734337
1734498
1734658
1734803
1734958
1735106
1735271
1735437
1735582
1735748
1735902
1736049
1736201
1736336
1736496
1736654
1736806
1736966
1737109
1737267
1737424
1737574
1737737
1737885
1738048
1738209
1738353
1738514
1738665
1738815
1738983
1739123
1739288
1739446
1739582
1739743
1739894
1740049
1740205
1740342
1740504
1740666
1740819
1740982
1741132
1741298
1741455
1741585
1741748
1741903
1742048
1742211
1742363
1742525
1742687
1742825
1742988
1743143
1743297
1743451
1743579
1743739
1743891
1744041
1744198
1744346
1744505
1744668
1744815
1744980
1745129
1745289
1745450
1745587
1745749
1745903
1746061
1746226
1746364
1746525
1746676
1746835
1746998
1747139
1747305
1747456
1747621
1747772
1747927
1748089
1748234
1748399
1748542
1748709
1748865
1749018
1749169
1749317
1749468
1749613
1749754
1749891
1750024
1750153
1750328
1750470
1750629
1750768
1750932
1751078
1751248
1751406
1751562
1751735
1751872
1752046
1752197
1752346
1752515
1752648
1752763
1752873
1752982
1753089
1753196
1753302
1753406
1753511
1753649
1753821
1753981
1754130
1754248
1754351
1754454
1754555
1754656
1754756
1754855
1754954
1755054
1755152
1755251
1755349
1755447
1755545
1755642
1755739
1755835
1755930
1756026
1756121
1756216
1756311
1756406
1756501
1756595
1756690
1756784
1756879
1756973
1757067
1757163
1757260
1757362
1757469
1757571
1757671
1757769
1757866
1757965
1758070
1758180
1758284
1758394
1758504
1758607
1758726
1758853
1758975
1759097
1759221
1759334
1759440
1759544
1759646
1759748
1759851
1759965
1760085
1760207
1760346
1760484
1760616
1760760
1760894
1761031
1761179
1761316
1761462
1761614
1761748
1761895
1762044
1762183
1762334
1762461
1762578
1762691
1762801
1762912
1763023
1763134
1763270
1763417
1763549
1763695
1763832
1763969
1764087
1764202
1764315
1764427
1764538
1764646
1764755
1764863
1764971
1765079
1765185
1765291
1765397
1765502
1765606
1765709
1765812
1765915
1766017
1766134
1766264
1766388
1766506
1766632
1766768
1766902
1767037
1767152
1767276
1767417
1767553
1767672
1767786
1767904
1768051
1768205
1768353
1768498
1768621
1768773
1768924
1769076
1769201
1769340
1769484
1769633
1769758
1769913
1770061
1770206
1770328
1770470
1770610
1770738
1770892
1771040
1771183
1771330
1771481
1771632
1771784
1771938
1772061
1772179
1772298
1772414
1772569
1772731
1772869
1773031
1773190
1773348
1773485
1773649
1773805
1773937
1774106
1774264
1774395
1774550
1774704
1774839
1775004
1775161
1775295
1775453
1775596
1775719
1775873
1776015
1776140
1776290
1776453
1776587
1776743
1776903
1777038
1777199
1777357
1777494
1777654
1777811
1777961
1778124
1778269
1778408
1778536
1778656
1778792
1778938
1779072
1779247
1779405
1779553
1779711
1779873
1780010
1780184
1780347
1780494
1780653
1780800
1780921
1781051
1781188
1781314
1781437
1781573
1781723
1781852
1782008
1782168
1782297
1782422
1782559
1782692
1782860
1783013
1783163
1783321
1783468
1783637
1783808
1783963
1784142
1784296
1784448
1784618
1784759
1784914
1785087
1785225
1785355
1785489
1785612
1785757
1785904
1786041
1786180
1786316
1786484
1786640
1786804
1786969
1787110
1787286
1787450
1787597
1787773
1787920
1788070
1788242
1788386
1788525
1788689
1788833
1788981
1789147
1789287
1789447
1789603
1789738
1789896
1790049
1790183
1790339
1790493
1790627
1790787
1790936
1791076
1791239
1791384
1791548
1791693
1791854
1792012
1792163
1792329
1792479
1792663
1792819
1792966
1793148
1793299
1793459
1793646
1793806
1793953
1794137
1794294
1794426
1794589
1794740
1794867
1795022
1795162
1795289
1795454
1795614
1795751
1795921
1796077
1796230
1796391
1796534
1796697
1796858
1796993
1797148
1797290
1797450
1797609
1797758
1797919
1798064
1798236
1798399
1798557
1798740
1798879
1799043
1799184
1799328
1799501
1799643
1799811
1799977
1800121
1800299
1800448
1800581
1800705
1800823
1801001
1801139
1801294
1801434
1801591
1801748
1801903
1802067
1802217
1802405
1802584
1802735
1802929
1803075
1803263
1803421
1803545
1803658
1803766
1803877
1804004
1804134
1804299
1804465
1804609
1804780
1804944
1805103
1805296
1805468
1805651
1805829
1805962
1806136
1806289
1806448
1806627
1806776
1806946
1807112
1807249
1807415
1807585
1807717
1807853
1808005
1808145
1808312
1808468
1808614
1808768
1808922
1809083
1809248
1809402
1809574
1809743
1809890
1810064
1810231
1810384
1810542
1810686
1810850
1811015
1811159
1811329
1811479
1811638
1811799
1811942
1812110
1812271
1812409
1812586
1812737
1812870
1813046
1813189
1813343
1813505
1813636
1813803
1813964
1814105
1814268
1814419
1814555
1814670
1814784
1814898
1815020
1815171
1815327
1815481
1815649
1815810
1815963
1816129
1816286
1816467
1816610
1816821
1816965
1817143
1817293
1817448
1817615
1817760
1817931
1818098
1818230
1818426
1818579
1818720
1818885
1819026
1819185
1819344
1819483
1819644
1819804
1819970
1820133
1820269
1820459
1820603
1820748
1820917
1821061
1821244
1821398
1821544
1821706
1821847
1822016
1822154
1822309
1822467
1822603
1822776
1822920
1823087
1823255
1823399
1823586
1823753
1823931
1824113
1824260
1824445
1824592
1824753
1824933
1825070
1825244
1825400
1825543
1825712
1825857
1826024
1826187
1826328
1826494
1826659
1826812
1826981
1827143
1827309
1827474
1827619
1827796
1827952
1828121
1828289
1828431
1828603
1828765
1828918
1829082
1829224
1829385
1829539
1829676
1829842
1829991
1830152
1830314
1830452
1830618
1830779
1830939
1831115
1831266
1831449
1831625
1831781
1831954
1832100
1832268
1832431
1832570
1832729
1832868
1833021
1833174
1833311
1833473
1833628
1833780
1833946
1834090
1834262
1834432
1834582
1834759
1834905
1835080
1835254
1835408
1835580
1835724
1835890
1836047
1836205
1836374
1836520
1836688
1836857
1837009
1837179
1837328
1837496
1837651
1837781
1837952
1838101
1838259
1838415
1838558
1838711
1838861
1839023
1839180
1839317
1839491
1839648
1839809
1839972
1840118
1840291
1840442
1840616
1840783
1840913
1841084
1841232
1841395
1841554
1841682
1841840
1841993
1842135
1842304
1842457
1842620
1842775
1842907
1843070
1843225
1843382
1843540
1843674
1843845
1843987
1844157
1844310
1844457
1844630
1844775
1844949
1845102
1845275
1845426
1845604
1845765
1845933
1846113
1846264
1846454
1846604
1846778
1846929
1847087
1847255
1847385
1847548
1847693
1847847
1848015
1848156
1848324
