Mammal: mouse
Fs: 1000
Integration: ECG

59
207
361
510
661
807
959
1104
1251
1377
1485
1589
1693
1798
1902
2005
2106
2208
2309
2418
2528
2689
2826
2965
3101
3237
3353
3460
3617
3746
3859
3969
4077
4188
4296
4460
4597
4708
4812
4918
5029
5140
5262
5382
5495
5615
5729
5894
6033
6176
6315
6457
6598
6744
6886
7032
7178
7328
7476
7626
7772
7920
8057
8171
8282
8448
8577
8736
8868
9011
9135
9287
9429
9569
9709
9850
9976
10085
10191
10301
10412
10527
10693
10839
10980
11124
11265
11408
11534
11642
11746
11849
11951
12052
12158
12273
12446
12590
12733
12878
13006
13117
13235
13415
13568
13703
13862
13989
14105
14212
14315
14414
14511
14606
14700
14794
14888
14981
15075
15176
15279
15390
15498
15608
15777
15924
16071
16215
16332
16432
16528
16626
16801
16955
17100
17210
17308
17409
17515
17620
17720
17818
17916
18017
18115
18219
18392
18534
18676
18819
18963
19110
19254
19404
19552
19703
19859
20009
20163
20326
20478
20634
20794
20949
21106
21226
21327
21426
21524
21624
21731
21837
21945
22122
22273
22417
22568
22717
22870
23028
23177
23293
23394
23498
23690
23846
24003
24161
24321
24478
24645
24814
24970
25100
25282
25411
25582
25736
25888
26022
26188
26338
26491
26622
26790
26912
27011
27107
27201
27295
27388
27482
27575
27667
27759
27850
27941
28032
28123
28213
28303
28393
28483
28574
28673
28820
28961
29093
29207
29356
29497
29642
29784
29902
30070
30224
30369
30483
30582
30679
30774
30872
30984
31093
31200
31374
31517
31659
31808
31961
32108
32266
32431
32591
32746
32912
33073
33205
33385
33534
33650
33761
33868
33972
34148
34296
34443
34590
34713
34871
35020
35160
35304
35452
35601
35734
35853
35970
36088
36197
36303
36403
36503
36602
36700
36799
36899
37058
37203
37338
37474
37593
37697
37798
37907
38012
38121
38236
38400
38528
38630
38727
38825
38921
39020
39122
39221
39319
39418
39514
39608
39700
39791
39881
39972
40063
40152
40244
40334
40429
40537
40679
40801
40904
41008
41114
41281
41431
41588
41753
41910
42066
42244
42425
42607
42718
42815
42909
43000
43092
43182
43271
43361
43450
43539
43627
43716
43805
43893
43981
44068
44155
44243
44332
44426
44517
44608
44702
44797
44896
44995
45089
45181
45270
45358
45447
45536
45624
45711
45799
45886
45973
46062
46151
46239
46327
46417
46510
46610
46754
46882
47014
47144
47273
47407
47545
47677
47785
47878
47970
48059
48151
48254
48362
48467
48621
48752
48888
49022
49156
49292
49427
49566
49711
49848
49957
50054
50147
50239
50329
50422
50523
50627
50725
50820
50919
51015
51112
51269
51398
51508
51602
51693
51783
51872
51960
52047
52134
52221
52307
52393
52479
52564
52650
52743
52871
52991
53107
53228
53352
53477
53600
53727
53854
53989
54109
54212
54310
54404
54495
54585
54674
54766
54856
54946
55036
55124
55211
55298
55384
55470
55555
55640
55725
55809
55894
55978
56062
56146
56230
56316
56403
56490
56578
56671
56761
56850
56938
57024
57111
57198
57287
57377
57471
57563
57653
57741
57827
57913
57998
58084
58172
58269
58368
58468
58601
58720
58838
58961
59078
59177
59268
59356
59443
59528
59613
59697
59782
59866
59950
60035
60120
60205
60290
60376
60461
60546
60630
60715
60799
60884
60971
61059
61146
61234
61323
61410
61496
61581
61666
61750
61833
61916
61999
62082
62166
62249
62332
62415
62498
62582
62666
62749
62833
62917
63001
63086
63172
63260
63350
63437
63526
63613
63703
63797
63890
63980
64072
64166
64259
64351
64447
64541
64636
64730
64823
64916
65011
65108
65204
65308
65451
65585
65707
65837
65960
66075
66188
66286
66386
66542
66675
66808
66915
67012
67113
67214
67310
67402
67494
67586
67677
67765
67853
67940
68026
68112
68200
68291
68382
68470
68559
68653
68746
68839
68931
69023
69114
69205
69294
69381
69468
69556
69644
69735
69826
69915
70003
70089
70175
70260
70345
70430
70514
70599
70683
70767
70852
70936
71020
71104
71189
71273
71357
71441
71525
71609
71696
71784
71872
71961
72054
72148
72243
72336
72435
72573
72691
72802
72902
72996
73092
73188
73281
73376
73468
73559
73650
73748
73843
73942
74037
74129
74219
74307
74395
74483
74572
74665
74756
74847
74940
75031
75124
75220
75367
75493
75624
75755
75888
76024
76158
76293
76427
76540
76683
76815
76946
77050
77145
77239
77332
77430
77525
77619
77715
77807
77900
77993
78084
78174
78264
78352
78440
78528
78615
78703
78794
78903
79040
79163
79288
79414
79535
79663
79791
79914
80027
80137
80243
80342
80444
80543
80642
80743
80843
80949
81048
81148
81306
81441
81561
81670
81769
81864
81957
82048
82139
82229
82320
82410
82501
82591
82680
82769
82859
82957
83067
83211
83342
83470
83597
83725
83857
83986
84119
84252
84384
84518
84633
84778
84914
85043
85154
85253
85349
85444
85539
85633
85728
85882
86018
86143
86277
86411
86545
86674
86809
86944
87064
87207
87323
87425
87525
87623
87722
87831
87937
88037
88135
88230
88324
88417
88510
88603
88700
88841
88976
89100
89207
89303
89396
89487
89577
89667
89756
89845
89933
90021
90109
90197
90284
90371
90457
90543
90628
90714
90799
90884
90969
91054
91138
91223
91308
91392
91477
91564
91652
91740
91830
91932
92073
92202
92326
92454
92580
92708
92824
92925
93018
93108
93197
93293
93389
93495
93650
93786
93919
94048
94152
94246
94337
94426
94516
94604
94692
94779
94865
94952
95038
95124
95210
95295
95382
95475
95572
95669
95783
95917
96035
96130
96220
96307
96393
96478
96563
96647
96731
96815
96898
96983
97067
97151
97235
97318
97402
97485
97568
97652
97735
97819
97905
97996
98085
98172
98258
98347
98435
98522
98608
98693
98777
98860
98944
99027
99110
99193
99275
99358
99440
99523
99606
99688
99771
99853
99938
100021
100105
100188
100271
100353
100436
100518
100600
100682
100764
100846
100927
101009
101090
101172
101253
101334
101415
101496
101577
101658
101739
101820
101901
101982
102063
102145
102231
102319
102409
102499
102588
102679
102767
102858
102949
103040
103137
103264
103385
103494
103596
103693
103833
103954
104078
104199
104322
104432
104526
104615
104702
104787
104873
104959
105045
105130
105216
105304
105395
105525
105650
105772
105899
106025
106145
106253
106348
106437
106525
106618
106715
106814
106917
107069
107196
107326
107452
107575
107709
107831
107936
108030
108121
108211
108299
108386
108473
108559
108646
108731
108817
108903
108990
109075
109161
109246
109331
109415
109502
109591
109679
109766
109851
109936
110020
110104
110188
110272
110355
110439
110523
110606
110688
110771
110853
110936
111019
111102
111184
111267
111349
111431
111514
111595
111677
111760
111842
111924
112006
112088
112171
112254
112339
112427
112517
112618
112741
112856
112967
113066
113156
113243
113329
113413
113498
113582
113666
113749
113833
113917
114000
114086
114171
114256
114341
114428
114515
114601
114687
114773
114860
114947
115037
115129
115229
115367
115491
115615
115733
115858
115980
116085
116179
116271
116364
116456
116547
116636
116725
116816
116906
116996
117087
117181
117273
117363
117453
117542
117631
117719
117807
117895
117983
118071
118159
118247
118336
118429
118521
118613
118707
118802
118897
118988
119080
119176
119270
119363
119455
119548
119641
119735
119827
119919
120010
120101
120191
120280
120369
120457
120546
120634
120724
120813
120903
120992
121081
121169
121258
121347
121435
121523
121611
121699
121788
121876
121965
122054
122143
122233
122323
122413
122502
122595
122727
122856
122972
123099
123219
123338
123444
123539
123631
123721
123813
123905
123996
124089
124227
124353
124459
124552
124642
124731
124819
124907
124994
125081
125167
125253
125338
125423
125508
125594
125678
125763
125848
125933
126017
126102
126187
126275
126364
126456
126546
126635
126723
126816
126909
127005
127097
127228
127350
127470
127590
127711
127834
127958
128077
128178
128273
128366
128467
128617
128748
128879
129009
129133
129262
129395
129527
129656
129764
129860
129952
130042
130135
130242
130350
130459
130560
130658
130752
130844
130935
131025
131114
131203
131292
131381
131469
131557
131645
131733
131820
131907
131994
132081
132167
132254
132347
132447
132544
132649
132748
132843
132932
133025
133122
133222
133322
133417
133510
133601
133691
133779
133866
133953
134040
134127
134214
134301
134388
134474
134560
134646
134732
134818
134903
134988
135073
135158
135243
135328
135412
135497
135582
135666
135750
135835
135920
136013
136131
136251
136366
136479
136592
136692
136786
136877
136966
137055
137147
137240
137333
137424
137521
137618
137755
137885
138011
138138
138262
138373
138471
138566
138658
138749
138839
138930
139024
139122
139218
139313
139410
139550
139671
139774
139869
139963
140055
140147
140237
140328
140419
140510
140600
140691
140780
140869
140958
141047
141135
141223
141311
141399
141486
141573
141660
141748
141835
141921
142007
142094
142181
142266
142351
142436
142521
142606
142691
142776
142865
142954
143042
143132
143222
143310
143398
143484
143572
143661
143753
143843
143933
144024
144115
144203
144292
144379
144468
144563
144664
144791
144917
145031
145154
145282
145412
145533
145664
145780
145881
145977
146083
146238
146365
146499
146636
146767
146906
147045
147181
147292
147390
147484
147576
147673
147831
147961
148068
148163
148256
148347
148439
148529
148619
148719
148855
148983
149099
149218
149339
149458
149574
149677
149782
149919
150038
150161
150286
150404
150511
150610
150706
150800
150892
150992
151099
151238
151366
151493
151618
151731
151829
151925
152025
152134
152283
152415
152542
152675
152813
152957
153096
153214
153315
153409
153501
153592
153682
153772
153861
153950
154039
154129
154218
154306
154394
154482
154569
154657
154744
154831
154919
155013
155141
155257
155365
155467
155566
155705
155835
155964
156095
156225
156366
156510
156658
156798
156908
157005
157099
157263
157414
157551
157698
157839
157988
158129
158279
158423
158574
158717
158872
159020
159149
159256
159423
159569
159703
159813
159910
160007
160108
160204
160300
160393
160487
160580
160672
160764
160856
160948
161042
161135
161243
161388
161520
161646
161775
161906
162035
162166
162297
162430
162549
162650
162747
162844
162939
163033
163127
163228
163336
163478
163603
163733
163866
163992
164125
164261
164398
164533
164674
164814
164951
165088
165200
165305
165466
165599
165732
165843
165945
166044
166143
166241
166337
166434
166530
166626
166722
166817
166911
167006
167101
167195
167290
167384
167477
167571
167664
167757
167850
167986
168118
168246
168374
168506
168636
168776
168924
169067
169226
169384
169554
169733
169910
170105
170270
170451
170604
170759
170901
171047
171182
171310
171425
171534
171699
171832
171952
172064
172179
172329
172460
172596
172731
172866
173004
173138
173278
173416
173555
173700
173839
173980
174117
174259
174400
174543
174685
174827
174971
175111
175251
175387
175515
175625
175736
175896
176033
176172
176305
176440
176577
176713
176850
176986
177123
177260
177398
177533
177670
177804
177937
178068
178204
178341
178477
178613
178748
178885
179018
179141
179266
179413
179551
179687
179825
179963
180100
180241
180379
180518
180656
180797
180938
181082
181225
181370
181518
181660
181808
181947
182091
182233
182376
182518
182662
182802
182944
183085
183227
183369
183508
183648
183784
183924
184059
184178
184281
184382
184481
184587
184753
184892
185026
185163
185300
185443
185590
185750
185899
186058
186214
186336
186439
186543
186720
186837
186937
187035
187134
187232
187328
187424
187519
187613
187706
187800
187893
187985
188077
188169
188263
188367
188474
188626
188766
188905
189040
189186
189341
189501
189656
189832
190004
190170
190319
190480
190626
190747
190849
190947
191046
191150
191258
191362
191464
191567
191669
191769
191866
191964
192061
192157
192253
192401
192544
192673
192810
192952
193098
193239
193393
193563
193725
193869
194001
194107
194210
194311
194417
194595
194735
194884
195039
195196
195347
195519
195695
195841
195994
196146
196286
196436
196581
196728
196878
197017
197163
197305
197443
197584
197724
197862
198000
198124
198271
198415
198558
198704
198858
199019
199166
199324
199494
199650
199807
199959
200106
200237
200399
200536
200683
200829
200971
201118
201268
201412
201564
201712
201856
202004
202157
202301
202448
202593
202739
202877
203021
203162
203303
203447
203591
203734
203882
204031
204174
204321
204473
204618
204764
204909
205049
205196
205344
205486
205637
205791
205935
206088
206242
206389
206541
206697
206844
206991
207135
207278
207423
207564
207710
207860
208005
208151
208299
208443
208584
208726
208870
209009
209153
209300
209441
209590
209744
209888
210037
210185
210328
210476
210622
210766
210913
211057
211201
211348
211493
211639
211787
211931
212078
212227
212369
212514
212660
212801
212947
213094
213239
213391
213543
213693
213839
213980
214112
214227
214338
214452
214626
214770
214918
215073
215221
215382
215558
215717
215895
216079
216234
216402
216562
216718
216876
217024
217177
217328
217472
217621
217768
217917
218072
218218
218368
218523
218679
218831
218996
219151
219311
219468
219619
219776
219931
220076
220232
220378
220532
220684
220834
220988
221143
221288
221441
221597
221740
221890
222037
222181
222328
222466
222608
222748
222876
223024
223161
223300
223441
223581
223722
223868
224010
224156
224305
224446
224595
224753
224898
225049
225204
225346
225497
225653
225799
225946
226093
226229
226343
226455
226569
226688
226809
226976
227115
227257
227397
227541
227693
227858
228016
228186
228375
228547
228712
228877
229022
229152
229265
229373
229482
229598
229713
229864
230021
230161
230310
230461
230608
230767
230940
231101
231271
231437
231585
231737
231885
232029
232183
232333
232485
232642
232787
232945
233107
233255
233412
233576
233727
233881
234041
234192
234343
234497
234646
234797
234957
235114
235265
235424
235578
235732
235883
236029
236174
236302
236458
236598
236746
236890
237040
237197
237348
237511
237664
237814
237962
238088
238249
238398
238543
238676
238783
238891
239008
239146
239275
239422
239566
239709
239852
239998
240137
240284
240434
240577
240719
240859
240998
241140
241280
241422
241567
241713
241859
242011
242161
242306
242457
242603
242742
242888
243035
243176
243310
243422
243530
243695
243835
243967
244109
244249
244391
244529
244672
244815
244960
245106
245248
245395
245537
245688
245835
245987
246135
246283
246432
246587
246743
246899
247047
247199
247343
247483
247602
247767
247908
248047
248190
248332
248477
248618
248765
248912
249055
249206
249353
249498
249649
249794
249949
250109
250262
250429
250595
250754
250914
251060
251213
251343
251453
251627
251774
251920
252069
252224
252378
252526
252679
252837
252993
253145
253269
253376
253480
253586
253688
253789
253896
254008
254113
254214
254378
254498
254599
254697
254793
254888
254985
255087
255239
255366
255502
255639
255768
255905
256036
256153
256257
256358
256519
256661
256786
256929
257066
257180
257289
257453
257588
257725
257860
257973
258123
258257
258360
258458
258561
258664
258766
258871
258972
259070
259171
259276
259384
259485
259588
259745
259882
260011
260142
260275
260405
260541
260681
260815
260958
261104
261249
261401
261560
261704
261862
262024
262165
262317
262456
262578
262696
262803
262907
263014
263175
263319
263465
263614
263752
263904
264062
264210
264328
264431
264533
264639
264745
264920
265068
265210
265354
265506
265665
265811
265969
266124
266277
266420
266539
266638
266737
266834
266931
267027
267124
267220
267317
267413
267508
267607
267763
267903
268033
268163
268293
268425
268556
268692
268827
268964
269108
269258
269399
269549
269699
269846
269997
270137
270273
270424
270542
270643
270744
270841
270936
271036
271195
271322
271422
271521
271668
271784
271881
271976
272068
272159
272251
272347
272497
272624
272754
272883
273008
273139
273273
273411
273555
273696
273837
273984
274132
274253
274406
274549
274670
274767
274859
274950
275039
275128
275217
275306
275394
275482
275570
275658
275745
275832
275920
276008
276103
276198
276328
276446
276548
276644
276739
276833
276927
277025
277120
277221
277367
277489
277619
277748
277875
278010
278148
278281
278419
278542
278645
278741
278836
278932
279025
279119
279211
279302
279394
279486
279577
279668
279759
279850
279940
280031
280121
280211
280301
280392
280482
280572
280661
280751
280840
280929
281017
281106
281194
281283
281372
281461
281550
281650
281787
281905
282028
282151
282269
282376
282474
282572
282669
282763
282858
282959
283059
283167
283315
283440
283568
283697
283831
283973
284108
284257
284397
284543
284685
284835
284973
285115
285250
285394
285532
285678
285821
285962
286107
286244
286384
286517
286640
286785
286912
287039
287166
287284
287405
287519
287636
287767
287911
288045
288175
288307
288434
288563
288689
288800
288913
289017
289166
289294
289417
289538
289651
289794
289919
290033
290137
290240
290379
290507
290639
290764
290894
291021
291148
291258
291357
291453
291548
291643
291737
291831
291924
292017
292111
292206
292307
292447
292574
292702
292830
292959
293089
293223
293358
293498
293648
293788
293944
294089
294244
294391
294537
294678
294819
294935
295047
295202
295343
295484
295620
295763
295902
296044
296181
296326
296465
296608
296749
296895
297034
297179
297318
297463
297598
297739
297877
298016
298158
298294
298433
298567
298704
298838
298975
299106
299240
299371
299485
299612
299737
299885
300018
300151
300282
300416
300548
300683
300814
300948
301080
301214
301349
301484
301618
301751
301886
302019
302156
302290
302428
302565
302705
302845
302986
303131
303273
303412
303540
303650
303759
303915
304052
304192
304323
304459
304593
304730
304866
305004
305146
305287
305433
305575
305724
305866
306014
306157
306303
306442
306589
306729
306875
307016
307164
307307
307451
307592
307737
307879
308025
308165
308309
308443
308586
308723
308862
308998
309138
309275
309416
309555
309699
309844
309993
310136
310283
310425
310575
310719
310868
311013
311163
311307
311461
311605
311752
311894
312042
312182
312327
312467
312608
312746
312885
313018
313137
313249
313361
313516
313652
313783
313912
314053
314189
314325
314459
314596
314733
314875
315014
315161
315306
315463
315616
315767
315915
316040
316155
316322
316466
316603
316743
316881
317019
317155
317291
317424
317559
317694
317832
317966
318103
318238
318376
318511
318649
318785
318924
319062
319203
319342
319484
319623
319764
319906
320046
320185
320327
320462
320602
320738
320878
321015
321154
321294
321434
321576
321723
321873
322029
322182
322338
322485
322640
322784
322935
323078
323226
323369
323519
323665
323817
323966
324118
324271
324426
324587
324744
324902
325048
325204
325350
325503
325650
325805
325954
326111
326262
326422
326573
326734
326884
327041
327188
327342
327488
327643
327793
327936
328069
328186
328310
328478
328623
328765
328909
329052
329201
329349
329500
329648
329802
329951
330105
330253
330405
330551
330700
330845
330993
331138
331285
331437
331583
331727
331870
332011
332152
332293
332433
332575
332714
332846
332986
333128
333270
333418
333567
333727
333882
334048
334209
334381
334540
334709
334858
335010
335134
335301
335441
335588
335727
335873
336014
336157
336295
336436
336573
336711
336834
336946
337103
337235
337378
337508
337652
337787
337930
338068
338213
338358
338512
338660
338822
338971
339131
339283
339442
339575
339734
339875
340025
340168
340319
340471
340629
340781
340942
341100
341273
341433
341605
341758
341928
342081
342232
342356
342464
342570
342677
342831
342958
343113
343253
343401
343543
343691
343839
343993
344148
344310
344471
344640
344798
344970
345124
345280
345430
345577
345725
345872
346021
346168
346321
346472
346626
346779
346933
347076
347225
347368
347520
347667
347817
347963
348111
348256
348404
348553
348701
348854
349004
349159
349307
349462
349611
349766
349917
350075
350226
350382
350539
350694
350856
351011
351164
351310
351459
351602
351748
351888
352034
352175
352322
352468
352620
352770
352924
353071
353226
353376
353538
353688
353847
353995
354142
354266
354381
354497
354676
354821
354974
355121
355276
355428
355591
355748
355911
356062
356228
356383
356549
356707
356833
356942
357051
357159
357267
357431
357571
357709
357848
357994
358136
358282
358426
358574
358719
358868
359013
359162
359308
359457
359599
359749
359893
360045
360190
360343
360491
360648
360795
360949
361096
361248
361395
361542
361683
361828
361971
362116
362263
362409
362559
362705
362858
363004
363158
363305
363458
363602
363755
363902
364059
364210
364376
364534
364706
364861
365034
365187
365350
365496
365654
365802
365958
366101
366248
366370
366537
366688
366832
366971
367081
367191
367339
367480
367627
367767
367913
368059
368204
368360
368520
368683
368859
369017
369187
369346
369511
369679
369842
370009
370178
370328
370493
370650
370798
370950
371098
371240
371386
371528
371663
371808
371952
372092
372236
372382
372528
372669
372819
372971
373122
373268
373424
373579
373730
373885
374029
374180
374328
374469
374614
374751
374895
375040
375179
375324
375472
375619
375765
375915
376061
376214
376369
376518
376676
376827
376981
377132
377281
377432
377577
377724
377870
378014
378158
378300
378451
378595
378743
378888
379036
379181
379331
379476
379630
379782
379937
380093
380244
380401
380550
380710
380855
381006
381167
381313
381469
381629
381777
381931
382074
382223
382368
382511
382632
382745
382854
382968
383117
383252
383397
383541
383685
383831
383982
384130
384294
384457
384637
384826
385018
385204
385375
385562
385716
385875
386027
386178
386325
386466
386589
386734
386876
387027
387176
387317
387462
387603
387750
387898
388046
388198
388348
388506
388654
388813
388971
389131
389302
389458
389607
389736
389848
389962
390083
390245
390395
390544
390688
390835
390985
391142
391305
391465
391629
391789
391956
392114
392282
392432
392595
392745
392897
393043
393178
393307
393421
393533
393684
393809
393937
394094
394230
394377
394518
394660
394803
394945
395093
395236
395389
395539
395695
395853
396009
396171
396328
396492
396647
396811
396968
397137
397298
397461
397616
397771
397925
398075
398230
398373
398528
398679
398833
398988
399141
399297
399448
399604
399758
399918
400072
400218
400367
400509
400659
400803
400956
401105
401260
401415
401575
401733
401907
402081
402247
402425
402585
402752
402901
403054
403188
403346
403489
403635
403773
403895
404016
404134
404288
404439
404583
404728
404867
405013
405156
405300
405454
405601
405760
405916
406073
406231
406382
406542
406692
406857
407016
407177
407340
407493
407651
407793
407948
408094
408244
408389
408535
408684
408828
408980
409125
409276
409424
409580
409727
409882
410034
410189
410345
410496
410657
410806
410961
411108
411263
411416
411578
411736
411895
412049
412206
412362
412513
412667
412817
412971
413121
413279
413427
413579
413726
413880
414029
414184
414332
414484
414626
414773
414912
415058
415202
415351
415501
415651
415805
415954
416081
416240
416386
416531
416681
416827
416983
417139
417302
417474
417636
417807
417946
418067
418180
418295
418419
418533
418646
418815
418952
419099
419236
419381
419527
419670
419816
419959
420112
420266
420431
420611
420785
420971
421138
421331
421496
421676
421830
421992
422124
422249
422417
422555
422703
422839
422976
423104
423253
423384
423533
423676
423823
423974
424119
424275
424420
424570
424717
424874
425037
425200
425368
425528
425699
425852
426017
426173
426341
426498
426655
426817
426966
427125
427282
427432
427587
427731
427889
428043
428195
428349
428494
428643
428795
428940
429097
429245
429405
429565
429735
429911
430079
430255
430416
430598
430774
430943
431119
431273
431438
431588
431744
431898
432046
432196
432337
432488
432638
432785
432938
433088
433237
433390
433538
433689
433841
433990
434143
434289
434438
434587
434733
434879
435017
435166
435315
435463
435618
435766
435922
436076
436230
436398
436551
436714
436878
437030
437186
437329
437477
437621
437746
437907
438050
438192
438337
438477
438622
438771
438916
439067
439217
439368
439524
439671
439831
439990
440148
440319
440476
440642
440814
440974
441143
441290
441448
441602
441748
441901
442048
442197
442350
442496
442652
442813
442959
443110
443267
443423
443577
443727
443880
444041
444196
444364
444518
444683
444835
444990
445146
445302
445469
445623
445785
445947
446098
446232
446342
446454
446628
446757
446870
446981
447088
447195
447305
447414
447569
447711
447848
447991
448131
448276
448426
448573
448727
448890
449043
449215
449379
449546
449715
449871
450028
450164
450327
450477
450627
450777
450918
451069
451216
451365
451514
451658
451805
451945
452090
452239
452380
452529
452669
452815
452964
453107
453257
453404
453554
453708
453856
454013
454169
454328
454492
454643
454795
454937
455090
455243
455394
455555
455708
455872
456039
456202
456374
456527
456693
456848
457003
457159
457307
457457
457598
457742
457879
458008
458147
458290
458424
458572
458715
458861
459012
459159
459318
459484
459646
459826
459982
460158
460310
460473
460624
460781
460931
461084
461233
461383
461534
461681
461836
461983
462140
462294
462447
462606
462751
462903
463052
463175
463294
463415
463525
463636
463750
463858
463965
464074
464183
464291
464454
464594
464732
464873
465013
465156
465305
465450
465606
465764
465919
466084
466239
466412
466571
466736
466903
467061
467222
467378
467536
467702
467852
468003
468132
468281
468432
468573
468721
468863
469009
469156
469300
469451
469604
469756
469923
470078
470245
470410
470573
470740
470890
471052
471207
471360
471516
471662
471814
471959
472084
472238
472382
472521
472668
472807
472948
473088
473216
473359
473494
473629
473776
473914
474060
474207
474350
474498
474640
474789
474942
475092
475245
475389
475540
475689
475833
475982
476123
476269
476415
476560
476710
476855
477005
477147
477294
477441
477583
477729
477867
478004
478125
478237
478387
478525
478666
478808
478945
479088
479229
479372
479518
479659
479811
479961
480110
480264
480407
480557
480701
480850
480994
481147
481291
481441
481590
481736
481885
482032
482182
482328
482477
482619
482762
482906
483048
483192
483331
483478
483622
483772
483924
484072
484227
484376
484538
484695
484854
485013
485167
485325
485479
485629
485774
485922
486064
486213
486357
486504
486644
486785
486919
487066
487208
487351
487496
487642
487792
487937
488093
488245
488408
488567
488736
488897
489064
489227
489385
489541
489691
489843
489984
490134
490273
490419
490561
490706
490849
490989
491127
491252
491371
491488
491601
491747
491879
492009
492142
492269
492416
492559
492697
492836
492976
493118
493261
493401
493545
493686
493833
493981
494128
494278
494424
494576
494718
494869
495014
495159
495304
495444
495590
495734
495880
496021
496166
496306
496449
496591
496731
496869
496988
497101
497211
497373
497510
497650
497791
497929
498074
498213
498364
498507
498661
498802
498952
499099
499255
499406
499569
499737
499897
500066
500190
500299
500405
500506
500608
500711
500812
500911
501012
501126
501249
501401
501535
501653
501758
501859
501963
502065
502167
502273
502385
502528
502658
502777
502882
502982
503083
503183
503284
503401
503518
503630
503738
503840
503940
504040
504138
504235
504331
504428
504525
504622
504718
504813
504908
505002
505097
505194
505290
505389
505523
505650
505774
505899
506025
506155
506280
506398
506502
506601
506699
506795
506889
506984
507078
507171
507264
507358
507452
507544
507638
507730
507823
507915
508008
508100
508193
508285
508377
508469
508561
508652
508745
508837
508930
509025
509129
509239
509345
509447
509549
509660
509768
509868
510006
510138
510258
510379
510507
510625
510734
510851
510985
511104
511239
511364
511498
511632
511765
511904
512043
512185
512332
512474
512621
512759
512906
513046
513191
513334
513477
513622
513764
513912
514054
514206
514353
514504
514658
514805
514956
515095
515242
515381
515524
515664
515802
515945
516084
516227
516372
516513
516659
516800
516944
517093
517233
517378
517518
517661
517805
517947
518096
518237
518387
518537
518686
518841
518988
519142
519287
519437
519586
519732
519880
520022
520169
520309
520449
520589
520727
520865
520998
521128
521251
521365
521482
521602
521716
521865
521999
522132
522263
522391
522500
522608
522712
522815
522919
523044
523179
523321
523459
523600
523745
523887
524042
524197
524356
524526
524685
524867
525028
525218
525378
525551
525698
525848
525966
526081
526194
526304
526415
526524
526633
526748
526858
526980
527136
527273
527417
527556
527697
527843
527987
528139
528286
528444
528599
528757
528923
529072
529234
529384
529539
529678
529819
529939
530061
530213
530346
530479
530605
530744
530886
531018
531162
531300
531443
531587
531727
531873
532012
532159
532302
532450
532598
532743
532894
533037
533190
533335
533486
533639
533785
533937
534079
534224
534352
534477
534609
534733
534860
534983
535130
535271
535414
535550
535687
535826
535961
536105
536246
536393
536539
536686
536837
536982
537134
537280
537433
537581
537728
537878
538021
538170
538312
538456
538600
538731
538877
539020
539160
539301
539433
539578
539716
539852
539994
540127
540271
540414
540553
540699
540844
540988
541138
541280
541428
541575
541718
541868
542012
542162
542308
542453
542599
542739
542885
543024
543166
543306
543440
543581
543715
543859
543999
544138
544276
544408
544553
544693
544833
544973
545114
545258
545401
545547
545690
545837
545981
546131
546274
546430
546576
546735
546887
547050
547209
547373
547541
547697
547848
547966
548080
548201
548313
548424
548530
548634
548743
548850
548954
549062
549219
549359
549502
549643
549784
549930
550072
550224
550369
550530
550684
550852
551009
551179
551332
551504
551657
551820
551953
552124
552274
552433
552584
552737
552894
553045
553204
553353
553509
553652
553807
553954
554111
554267
554418
554579
554725
554882
555031
555183
555326
555473
555618
555761
555906
556049
556192
556330
556479
556620
556767
556909
557059
557202
557349
557494
557639
557778
557921
558066
558210
558362
558508
558666
558818
558982
559136
559300
559450
559606
559757
559913
560059
560188
560313
560437
560603
560738
560887
561020
561166
561305
561450
561594
561740
561889
562032
562181
562322
562469
562606
562729
562838
562943
563055
563205
563346
563490
563630
563774
563912
564058
564204
564356
564512
564668
564836
564994
565173
565332
565515
565671
565846
565995
566156
566304
566461
566602
566736
566888
567025
567159
567280
567436
567575
567722
567867
568009
568158
568303
568453
568607
568756
568917
569066
569232
569386
569554
569714
569877
570032
570189
570336
570486
570639
570787
570937
571077
571225
571364
571508
571653
571790
571933
572066
572216
572363
572506
572654
572796
572945
573092
573240
573394
573539
573696
573845
573998
574151
574301
574458
574603
574756
574901
575049
575173
575291
575456
575591
575735
575869
576018
576162
576304
576449
576588
576735
576877
577022
577167
577309
577452
577579
577729
577860
578006
578151
578292
578438
578578
578725
578866
579014
579164
579311
579457
579579
579703
579826
579941
580059
580171
580329
580462
580607
580739
580883
581025
581168
581315
581462
581613
581759
581908
582039
582198
582342
582496
582645
582802
582953
583099
583246
583382
583535
583679
583822
583969
584109
584260
584403
584555
584702
584850
585004
585152
585311
585456
585578
585689
585796
585904
586015
586122
586275
586410
586557
586695
586839
586977
587120
587254
587401
587535
587682
587818
587965
588107
588256
588402
588547
588661
588763
588862
588961
589059
589155
589252
589347
589443
589537
589631
589726
589820
589914
590011
590114
590251
590381
590503
590619
590726
590831
590952
591061
591162
591260
591356
591450
591543
591635
591727
591818
591910
592001
592092
592183
592274
592365
592456
592547
592638
592728
592819
592910
593002
593094
593186
593278
593370
593463
593558
593652
593744
593836
593929
594026
594127
594235
594369
594502
594630
594754
594883
595014
595147
595278
595390
595491
595588
595682
595777
595880
596038
596178
596312
596440
596546
596643
596738
596838
596944
597045
597141
597235
597329
597421
597514
597605
597697
597790
597886
597996
598102
598206
598312
598417
598524
598632
598741
598853
598967
599078
599193
599310
599427
599543
599663
599783
599902
600031
600219
600383
600546
600702
600845
600993
601138
601284
601398
601510
601673
601793
601896
601994
602090
602185
602325
602460
602602
602735
602877
603020
603155
603300
603450
603593
603747
603902
604044
604188
604302
604408
604575
604711
604823
604925
605022
605117
605211
605305
605398
605492
605586
605679
605775
605872
606016
606156
606283
606420
606558
606694
606831
606976
607115
607261
607412
607556
607708
607850
608001
608142
608269
608376
608476
608573
608669
608763
608858
608963
609106
609242
609375
609490
609610
609759
609889
610028
610166
610299
610433
610544
610644
610741
610835
610929
611023
611116
611210
611304
611403
611502
611653
611781
611908
612034
612163
612297
612426
612564
612701
612841
612989
613131
613287
613437
613601
613751
613921
614067
614238
614383
614545
614697
614814
614918
615017
615116
615215
615312
615408
615504
615600
615696
615791
615887
615982
616077
616180
616332
616465
616600
616733
616869
617007
617147
617285
617421
617532
617632
617729
617824
617918
618011
618105
618197
618290
618382
618474
618567
618659
618751
618842
618934
619025
619116
619207
619298
619389
619480
619570
619662
619753
619846
619945
620042
620172
620292
620416
620541
620668
620795
620919
621049
621180
621308
621436
621546
621653
621768
621916
622056
622195
622329
622473
622623
622767
622926
623083
623239
623406
623554
623714
623859
624019
624165
624325
624480
624631
624754
624865
624969
625069
625167
625265
625362
625458
625553
625648
625744
625841
625938
626039
626150
626262
626412
626547
626667
626769
626865
626959
627051
627143
627234
627325
627415
627506
627596
627687
627777
627867
627956
628045
628134
628223
628312
628400
628489
628578
628667
628756
628845
628934
629023
629112
629201
629290
629378
629466
629555
629644
629732
629821
629910
629999
630087
630175
630264
630351
630439
630526
630613
630700
630787
630874
630961
631047
631134
631221
631307
631394
631480
631567
631654
631741
631828
631915
632002
632089
632176
632263
632350
632437
632524
632612
632698
632785
632872
632959
633047
633134
633221
633308
633397
633489
633611
633727
633838
633934
634029
634121
634212
634304
634399
634496
634597
634707
634834
634952
635080
635201
635326
635454
635578
635708
635843
635974
636115
636261
636402
636553
636694
636849
637001
637158
637311
637466
637618
637767
637894
638005
638109
638210
638310
638472
638617
638753
638895
639039
639175
639319
639464
639601
639745
639892
640035
640186
640331
640482
640630
640777
640905
641019
641189
641334
641473
641612
641756
641902
642049
642197
642347
642500
642655
642809
642961
643116
643265
643416
643561
643713
643858
644008
644156
644308
644453
644600
644749
644891
645035
645166
645315
645450
645559
645660
645758
645855
645950
646045
646142
646248
646350
646459
646565
646726
646860
647001
647139
647279
647419
647561
647705
647846
647987
648108
648260
648382
648483
648583
648680
648776
648871
648965
649061
649159
649256
649366
649479
649638
649774
649910
650042
650179
650316
650454
650592
650730
650867
650993
651138
651265
651410
651545
651684
651820
651959
652097
652240
652380
652526
652665
652807
652919
653022
653123
653224
653324
653424
653523
653622
653722
653873
654009
654150
654287
654429
654573
654720
654873
655019
655178
655343
655512
655690
655876
656039
656225
656386
656561
656699
656877
657031
657189
657337
657491
657637
657785
657927
658077
658221
658341
658450
658562
658677
658788
658901
659015
659182
659312
659418
659520
659619
659717
659821
659933
660099
660240
660375
660514
660642
660786
660929
661067
661213
661356
661508
661651
661803
661955
662075
662175
662272
662367
662462
662555
662648
662740
662832
662924
663016
663108
663201
663297
663399
663503
663601
663697
663790
663882
663973
664065
664158
664254
664348
664441
664533
664624
664714
664804
664894
664983
665072
665161
665250
665339
665427
665515
665603
665691
665779
665866
665954
666040
666128
666217
666304
666392
666480
666569
666658
666752
666883
667012
667139
667257
667380
667485
667579
667670
667760
667850
667938
668026
668114
668202
668289
668377
668464
668552
668642
668734
668824
668916
669005
669094
669182
669271
669359
669446
669533
669620
669708
669795
669882
669969
670056
670143
670229
670316
670403
670490
670578
670665
670752
670840
670927
671017
671108
671198
671289
671378
671467
671556
671644
671732
671820
671908
671995
672083
672170
672258
672346
672433
672520
672608
672695
672783
672870
672957
673045
673136
673236
673337
673437
673535
673628
673723
673816
673907
673996
674085
674173
674262
674351
674441
674530
674619
674707
674796
674884
674972
675060
675148
675236
675327
675416
675506
675598
675690
675781
675870
675960
676049
676137
676225
676315
676410
676502
676594
676688
676780
676871
676962
677057
677167
677304
677419
677518
677614
677709
677801
677893
677983
678072
678161
678250
678339
678427
678515
678602
678690
678778
678865
678952
679039
679127
679217
679305
679393
679483
679571
679661
679749
679843
679949
680080
680207
680327
680449
680572
680697
680816
680942
681069
681191
681298
681413
681522
681634
681781
681914
682043
682174
682302
682434
682565
682697
682828
682960
683089
683222
683338
683438
683532
683625
683721
683877
684006
684108
684203
684294
684385
684474
684563
684651
684739
684826
684914
685001
685088
685175
685262
685348
685434
685521
685607
685693
685780
685866
685951
686037
686123
686208
686293
686379
686464
686549
686634
686720
686805
686891
686976
687065
687164
687264
687364
687490
687610
687726
687845
687967
688086
688207
688329
688449
688562
688679
688787
688889
689002
689146
689278
689410
689539
689672
689806
689945
690090
690230
690379
690526
690676
690827
690974
691128
691274
691430
691575
691726
691874
692025
692171
692320
692461
692609
692750
692899
693043
693197
693344
693496
693642
693791
693941
694087
694239
694388
694533
694683
694827
694971
695117
695240
695347
695448
695548
695647
695747
695848
695951
696113
696249
696387
696528
696666
696808
696956
697098
697247
697398
697549
697707
697855
698005
698127
698232
698333
698433
698532
698631
698739
698848
699015
699164
699304
699446
699588
699733
699883
700029
700184
700333
700493
700651
700812
700964
701118
701270
701426
701579
701730
701878
702026
702173
702321
702462
702581
702685
702786
702884
702981
703076
703171
703264
703358
703450
703543
703683
703822
703952
704081
704186
704281
704373
704464
704553
704642
704730
704818
704906
704994
705081
705169
705256
705344
705431
705517
705604
705690
705776
705862
705949
706040
706169
706289
706410
706535
706655
706784
706915
707047
707184
707329
707474
707634
707798
707956
708102
708212
708316
708476
708626
708768
708915
709061
709209
709362
709511
709668
709813
709971
710119
710280
710433
710592
710744
710903
711058
711169
711268
711365
711462
711558
711653
711748
711843
711938
712035
712136
712239
712393
712529
712668
712806
712941
713079
713215
713354
713497
713636
713778
713928
714070
714218
714359
714505
714648
714799
714948
715095
715246
715393
715547
715696
715854
716004
716164
716314
716469
716615
716766
716913
717063
717209
717359
717506
717650
717761
717859
717957
718053
718149
718244
718339
718433
718528
718634
718793
718929
719067
719207
719350
719489
719636
719779
719928
720081
720226
720379
720528
720685
720841
721001
721169
721323
721493
721661
721822
721988
722141
722303
722460
722618
722771
722921
723077
723227
723378
723527
723653
723814
723952
724074
724184
724290
724394
724498
724605
724709
724814
724918
725023
725188
725325
725465
725602
725746
725893
726043
726199
726348
726499
726644
726797
726947
727104
727265
727419
727584
727741
727906
728071
728230
728359
728466
728571
728747
728875
728991
729153
729288
729441
729581
729729
729876
730026
730182
730332
730491
730655
730808
730971
731124
731279
731436
731586
731739
731884
732032
732180
732329
732487
732638
732803
732964
733127
733298
733453
733618
733768
733889
734002
734118
734228
734345
734462
734573
734748
734893
735043
735191
735345
735505
735661
735830
736003
736175
736353
736513
736688
736850
737013
737167
737322
737481
737631
737786
737933
738083
738234
738384
738541
738691
738843
738996
739146
739299
739444
739590
739736
739875
740022
740165
740312
740463
740608
740764
740921
741077
741238
741389
741542
741662
741773
741953
742099
742244
742389
742526
742671
742815
742965
743115
743270
743430
743581
743745
743899
744057
744216
744366
744521
744673
744828
744986
745138
745296
745446
745598
745753
745903
746054
746200
746352
746503
746651
746803
746948
747096
747243
747389
747538
747681
747833
747988
748138
748290
748442
748593
748758
748923
749084
749261
749432
749603
749770
749934
750101
750251
750373
750483
750592
750708
750881
751039
751196
751355
751527
751693
751885
752069
752270
752463
752652
752828
752996
753156
753287
753407
753586
753711
753886
754030
754178
754323
754467
754617
754763
754913
755062
755210
755366
755516
755672
755832
755986
756150
756309
756479
756639
756808
756967
757124
757287
757440
757594
757742
757890
758038
758177
758327
758475
758616
758761
758909
759051
759199
759347
759491
759616
759723
759832
759940
760098
760233
760378
760523
760662
760796
760903
761007
761107
761213
761376
761518
761660
761797
761945
762100
762249
762417
762572
762747
762905
763080
763197
763300
763399
763495
763602
763703
763803
763908
764006
764101
764193
764285
764376
764467
764557
764658
764810
764924
765019
765111
765202
765292
765383
765475
765569
765662
765757
765857
765959
766068
766170
766326
766462
766593
766728
766867
767010
767155
767305
767463
767621
767780
767935
768051
768221
768368
768486
768585
768682
768779
768945
769085
769223
769365
769505
769647
769789
769938
770089
770243
770402
770565
770728
770887
771043
771203
771362
771510
771663
771815
771961
772107
772251
772377
772525
772673
772817
772961
773109
773256
773404
773559
773708
773860
774006
774157
774305
774457
774611
774765
774927
775077
775241
775398
775556
775716
775870
776003
776114
776222
776329
776435
776542
776659
776773
776940
777083
777225
777371
777513
777665
777819
777971
778132
778301
778456
778628
778800
778955
779114
779241
779353
779461
779564
779667
779773
779876
779978
780081
780191
780361
780504
780648
780796
780943
781096
781246
781409
781565
781730
781884
782056
782214
782388
782547
782710
782832
782940
783048
783153
783256
783358
783465
783571
783739
783878
784020
784156
784296
784438
784578
784695
784796
784895
784991
785087
785183
785277
785372
785466
785559
785652
785745
785839
785935
786081
786215
786348
786482
786614
786753
786896
787038
787190
787339
787504
787670
787848
788015
788185
788342
788510
788662
788828
788984
789147
789302
789454
789609
789754
789905
790048
790194
790339
790480
790624
790761
790905
791044
791186
791326
791455
791603
791740
791881
792021
792164
792311
792456
792609
792754
792906
793054
793206
793350
793498
793641
793786
793931
794075
794218
794338
794495
794632
794774
794913
795047
795193
795329
795470
795610
795752
795895
796037
796180
796320
796466
796610
796757
796902
797047
797196
797338
797482
797622
797740
797853
797969
798130
798271
798413
798553
798694
798839
798981
799132
799283
799437
799595
799744
799898
800029
800189
800336
800483
800630
800757
800916
801062
801207
801356
801497
801645
801791
801939
802085
802229
802379
802521
802672
802820
802976
803125
803277
803426
803575
803729
803876
804028
804171
804318
804461
804604
804743
804879
805026
805162
805307
805449
805597
805741
805893
806042
806196
806352
806507
806662
806812
806965
807116
807271
807419
807574
807721
807874
808028
808178
808333
808481
808636
808785
808935
809087
809234
809389
809539
809698
809853
810002
810154
810300
810454
810602
810752
810896
811042
811182
811325
811469
811610
811756
811897
812045
812196
812344
812501
812653
812815
812979
813133
813296
813446
813565
813669
813775
813883
813987
814090
814193
814294
814399
814567
814707
814852
814990
815135
815278
815425
815577
815725
815884
816035
816193
816341
816496
816615
816788
816935
817090
817234
817386
817536
817687
817835
817987
818136
818282
818432
818576
818723
818872
819014
819159
819283
819391
819563
819703
819819
819920
820020
820185
820320
820432
820538
820703
820845
820986
821128
821270
821418
821566
821717
821875
822021
822181
822337
822491
822638
822795
822958
823105
823265
823413
823577
823725
823883
824030
824182
824327
824480
824627
824783
824928
825083
825237
825391
825548
825698
825856
826000
826153
826299
826452
826601
826755
826908
827060
827216
827370
827530
827683
827843
827994
828159
828309
828469
828618
828780
828934
829089
829209
829318
829426
829532
829638
829809
829949
830088
830206
830362
830504
830648
830794
830940
831093
831242
831407
831570
831741
831922
832084
832272
832433
832614
832778
832918
833089
833219
833333
833444
833553
833662
833772
833880
833994
834160
834309
834458
834602
834754
834903
835060
835225
835382
835558
835721
835899
836066
836229
836386
836540
836693
836842
836995
837142
837293
837441
837589
837738
837882
838028
838171
838317
838465
838610
838759
838902
839050
839201
839349
839505
839653
839810
839967
840121
840284
840435
840591
840749
840902
841056
841204
841362
841509
841639
841754
841866
842029
842168
842314
842445
842590
842733
842876
843023
843166
843318
843474
843628
843792
843941
844106
844265
844428
844587
844743
844900
845047
845177
845295
845411
845524
845637
845745
845851
845969
846083
846252
846395
846539
846686
846828
846977
847125
847279
847435
847586
847745
847900
848065
848230
848392
848558
848715
848876
849028
849159
849270
849383
849544
849692
849834
849981
850126
850269
850416
850562
850713
850862
851018
851164
851314
851468
851618
851769
851915
852070
852217
852367
852514
852644
852748
852849
852948
853046
853144
853241
853337
853434
853530
853627
853725
853832
853994
854130
854266
854404
854540
854684
854828
854977
855130
855283
855453
855610
855800
855959
856158
856324
856520
856684
856846
856964
857145
857294
857442
857558
857666
857830
857969
858112
858245
858392
858535
858678
858828
858974
859130
859281
859437
859587
859740
859886
860034
860183
860329
860481
860625
860774
860921
861071
861221
861369
861523
861669
861823
861974
862122
862275
862421
862571
862719
862865
863018
863162
863312
863462
863614
863770
863918
864073
864217
864365
864511
864656
864797
864910
865030
865195
865337
865483
865625
865773
865925
866076
866237
866396
866563
866742
866912
867102
867258
867433
867603
867772
867938
868097
868230
868345
868524
868666
868815
868947
869099
869240
869386
869528
869673
869815
869957
870099
870221
870378
870522
870662
870806
870943
871053
871152
871251
871347
871443
871539
871637
871754
871864
871970
872128
872261
872401
872543
872681
872829
872972
873123
873271
873420
873566
873714
873852
873961
874058
874154
874248
874341
874435
874528
874620
874712
874804
874896
874988
875087
875195
875300
875405
875511
875617
875723
875833
875946
876059
876178
876304
876437
876642
876799
876961
877109
877267
877414
877572
877717
877868
878019
878170
878318
878463
878614
878754
878904
879047
879191
879333
879452
879613
879753
879895
880033
880173
880317
880457
880608
880758
880915
881076
881240
881422
881588
881787
881959
882150
882323
882495
882662
882816
882970
883091
883216
883378
883529
883673
883818
883961
884097
884239
884375
884494
884651
884787
884921
885055
885178
885294
885412
885524
885637
885799
885938
886077
886210
886351
886490
886630
886772
886910
887050
887192
887334
887479
887620
887766
887912
888055
888204
888346
888489
888632
888771
888913
889046
889183
889324
889459
889603
889742
889883
890025
890167
890313
890454
890597
890735
890881
891025
891175
891329
891479
891638
891790
891950
892110
892262
892413
892555
892682
892840
892977
893119
893256
893393
893527
893643
893790
893933
894069
894205
894327
894444
894598
894731
894871
895002
895144
895280
895417
895555
895692
895831
895969
896110
896249
896388
896529
896668
896811
896952
897094
897235
897376
897521
897661
897807
897947
898091
898235
898378
898524
898666
898809
898951
899094
899238
899379
899523
899666
899809
899949
900085
900220
900346
900482
900613
900755
900898
901038
901182
901323
901471
901620
901767
901923
902072
902228
902375
902521
902644
902758
902930
903073
903218
903359
903505
903649
903798
903943
904095
904246
904401
904551
904701
904828
904937
905044
905150
905258
905429
905567
905703
905833
905969
906104
906250
906389
906533
906675
906821
906968
907114
907265
907407
907555
907696
907840
907952
908052
908151
908247
908343
908437
908531
908625
908719
908814
908914
909019
909124
909275
909407
909543
909679
909814
909951
910082
910220
910358
910493
910600
910697
910793
910887
910980
911074
911167
911259
911352
911446
911538
911630
911723
911819
911920
912022
912125
912259
912389
912517
912641
912770
912900
913030
913160
913295
913428
913560
913697
913832
913967
914105
914245
914384
914531
914679
914822
914976
915135
915290
915442
915600
915758
915907
916069
916229
916372
916524
916674
916819
916971
917115
917259
917400
917541
917684
917821
917965
918107
918251
918398
918539
918687
918831
918981
919132
919279
919431
919576
919727
919878
920027
920177
920319
920466
920609
920753
920898
921037
921181
921321
921461
921592
921708
921823
921937
922083
922225
922361
922501
922634
922772
922911
923048
923186
923322
923461
923600
923737
923877
924014
924154
924295
924434
924574
924711
924851
924992
925131
925273
925413
925553
925695
925832
925970
926109
926242
926375
926504
926632
926769
926905
927039
927176
927311
927447
927585
927721
927862
928004
928143
928286
928430
928571
928714
928853
928995
929138
929277
929418
929555
929692
929831
929965
930105
930238
930374
930511
930646
930785
930921
931060
931199
931336
931476
931613
931752
931894
932031
932175
932314
932452
932593
932730
932867
933000
933130
933262
933385
933495
933604
933712
933851
933973
934110
934237
934377
934512
934648
934788
934922
935062
935200
935341
935483
935622
935767
935911
936052
936198
936341
936483
936628
936766
936906
937044
937155
937259
937375
937480
937582
937682
937781
937879
937980
938080
938188
938298
938437
938579
938715
938847
938982
939112
939218
939318
939417
939514
939609
939705
939802
939900
939998
940137
940268
940406
940536
940670
940806
940942
941085
941229
941376
941531
941676
941827
941973
942123
942269
942413
942556
942693
942831
942963
943084
943191
943299
943413
943522
943636
943792
943928
944068
944201
944338
944474
944613
944757
944898
945048
945197
945349
945503
945652
945811
945960
946124
946280
946443
946600
946755
946912
947061
947212
947354
947499
947636
947778
947920
948060
948204
948341
948484
948622
948761
948904
949041
949182
949323
949461
949599
949733
949872
950010
950145
950282
950413
950547
950688
950821
950955
951090
951220
951361
951498
951633
951771
951908
952049
952191
952330
952472
952612
952752
952895
953035
953175
953319
953456
953597
953735
953875
954019
954157
954300
954446
954588
954735
954874
955015
955151
955294
955434
955576
955717
955863
956007
956156
956306
956455
956604
956750
956896
957038
957154
957259
957362
957463
957564
957665
957765
957867
957972
958082
958189
958352
958490
958628
958769
958909
959055
959201
959355
959519
959671
959844
960006
960186
960345
960528
960685
960860
961010
961136
961244
961354
961458
961561
961666
961770
961872
961974
962078
962184
962292
962447
962586
962726
962865
963005
963147
963289
963438
963586
963739
963894
964047
964208
964359
964518
964666
964819
964973
965124
965279
965424
965575
965725
965871
966019
966161
966306
966449
966592
966736
966876
967019
967162
967303
967446
967584
967722
967860
967992
968134
968270
968410
968550
968687
968830
968970
969112
969256
969395
969538
969682
969823
969968
970108
970250
970393
970532
970674
970816
970955
971102
971250
971394
971545
971691
971841
971995
972140
972291
972441
972587
972732
972874
973018
973155
973297
973441
973582
973725
973865
974006
974149
974286
974430
974573
974714
974856
974993
975131
975271
975409
975550
975687
975829
975973
976113
976257
976397
976539
976683
976822
976964
977102
977242
977385
977522
977664
977808
977948
978089
978217
978335
978490
978631
978772
978910
979051
979192
979338
979478
979625
979768
979917
980061
980213
980361
980516
980667
980830
980984
981137
981254
981359
981463
981568
981671
981776
981939
982075
982216
982355
982494
982637
982774
982917
983060
983202
983350
983491
983639
983786
983927
984072
984210
984336
984480
984616
984755
984888
985030
985166
985305
985445
985584
985728
985865
986006
986147
986289
986436
986578
986726
986868
987013
987158
987304
987456
987598
987750
987898
988047
988199
988346
988492
988633
988779
988923
989070
989219
989363
989515
989663
989817
989975
990124
990283
990436
990596
990756
990906
991056
991197
991338
991458
991572
991738
991875
992022
992168
992315
992469
992623
992783
992947
993102
993266
993420
993572
993692
993805
993916
994028
994139
994251
994364
994520
994664
994810
994956
995099
995249
995398
995553
995715
995864
996022
996174
996331
996486
996641
996804
996952
997110
997261
997413
997557
997698
997848
997986
998125
998254
998393
998537
998674
998821
998963
999106
999247
999386
999533
999675
999821
999971
1000117
1000264
1000407
1000552
1000702
1000845
1000998
1001151
1001302
1001457
1001602
1001757
1001908
1002060
1002217
1002362
1002516
1002667
1002814
1002960
1003079
1003191
1003353
1003491
1003638
1003780
1003923
1004072
1004215
1004366
1004516
1004663
1004813
1004957
1005111
1005265
1005419
1005579
1005733
1005893
1006049
1006203
1006361
1006508
1006665
1006821
1006973
1007131
1007276
1007428
1007577
1007722
1007868
1008008
1008150
1008297
1008433
1008583
1008729
1008873
1009024
1009169
1009318
1009466
1009611
1009759
1009905
1010050
1010197
1010338
1010482
1010625
1010766
1010910
1011051
1011196
1011342
1011484
1011635
1011782
1011930
1012080
1012223
1012369
1012514
1012654
1012796
1012928
1013064
1013211
1013345
1013484
1013629
1013766
1013910
1014056
1014199
1014347
1014496
1014642
1014789
1014930
1015073
1015220
1015360
1015506
1015651
1015791
1015934
1016078
1016219
1016363
1016507
1016650
1016797
1016938
1017082
1017227
1017368
1017510
1017649
1017781
1017902
1018034
1018161
1018311
1018447
1018586
1018727
1018865
1019007
1019152
1019294
1019443
1019596
1019747
1019907
1020058
1020221
1020380
1020540
1020706
1020860
1021025
1021183
1021346
1021512
1021671
1021834
1021984
1022141
1022293
1022443
1022594
1022739
1022887
1023031
1023173
1023317
1023455
1023595
1023733
1023868
1024012
1024146
1024288
1024428
1024563
1024699
1024834
1024970
1025108
1025231
1025343
1025500
1025622
1025732
1025883
1026011
1026152
1026289
1026426
1026567
1026706
1026845
1026986
1027122
1027264
1027410
1027549
1027698
1027846
1027992
1028141
1028284
1028427
1028567
1028700
1028814
1028938
1029052
1029212
1029351
1029488
1029627
1029763
1029903
1030040
1030179
1030323
1030462
1030604
1030746
1030885
1031029
1031167
1031298
1031411
1031519
1031626
1031785
1031921
1032057
1032197
1032335
1032473
1032614
1032757
1032900
1033045
1033185
1033329
1033472
1033611
1033733
1033844
1033952
1034060
1034169
1034276
1034383
1034546
1034686
1034828
1034972
1035114
1035262
1035409
1035554
1035698
1035820
1035933
1036086
1036222
1036361
1036500
1036634
1036765
1036895
1037037
1037169
1037309
1037448
1037587
1037729
1037864
1037985
1038092
1038198
1038301
1038402
1038503
1038604
1038703
1038803
1038919
1039054
1039183
1039314
1039440
1039577
1039705
1039829
1039941
1040045
1040146
1040247
1040346
1040448
1040549
1040657
1040805
1040937
1041069
1041201
1041330
1041462
1041597
1041728
1041863
1041999
1042132
1042266
1042382
1042489
1042594
1042696
1042797
1042897
1042997
1043095
1043193
1043290
1043387
1043483
1043583
1043691
1043793
1043894
1043998
1044100
1044205
1044307
1044449
1044581
1044711
1044837
1044966
1045097
1045226
1045359
1045489
1045617
1045752
1045882
1046011
1046123
1046227
1046327
1046426
1046526
1046624
1046721
1046818
1046915
1047014
1047112
1047210
1047307
1047407
1047518
1047648
1047779
1047901
1048029
1048160
1048289
1048422
1048557
1048690
1048828
1048962
1049097
1049234
1049369
1049509
1049645
1049785
1049922
1050062
1050197
1050334
1050469
1050588
1050694
1050797
1050896
1050996
1051097
1051197
1051297
1051396
1051494
1051591
1051689
1051786
1051885
1051985
1052086
1052198
1052339
1052468
1052597
1052724
1052855
1052982
1053112
1053240
1053371
1053500
1053629
1053759
1053888
1054018
1054151
1054283
1054420
1054552
1054685
1054818
1054935
1055042
1055189
1055315
1055425
1055529
1055629
1055729
1055826
1055924
1056021
1056121
1056220
1056324
1056427
1056528
1056629
1056743
1056895
1057028
1057156
1057279
1057411
1057540
1057672
1057806
1057938
1058074
1058204
1058339
1058475
1058610
1058747
1058882
1059018
1059150
1059267
1059405
1059531
1059670
1059803
1059936
1060067
1060199
1060331
1060448
1060556
1060670
1060780
1060928
1061058
1061173
1061307
1061434
1061567
1061693
1061804
1061914
1062015
1062113
1062209
1062305
1062400
1062494
1062589
1062683
1062776
1062869
1062963
1063055
1063148
1063241
1063334
1063427
1063520
1063612
1063705
1063798
1063890
1063983
1064075
1064168
1064260
1064355
1064450
1064545
1064639
1064732
1064825
1064919
1065016
1065112
1065216
1065323
1065428
1065541
1065640
1065740
1065839
1065935
1066029
1066123
1066216
1066310
1066404
1066497
1066591
1066684
1066779
1066873
1066966
1067058
1067151
1067244
1067336
1067429
1067521
1067613
1067706
1067798
1067890
1067982
1068074
1068166
1068258
1068350
1068442
1068533
1068625
1068716
1068809
1068900
1068992
1069084
1069175
1069267
1069358
1069450
1069541
1069634
1069726
1069819
1069932
1070035
1070135
1070240
1070344
1070447
1070551
1070655
1070758
1070855
1070952
1071048
1071146
1071249
1071351
1071450
1071551
1071650
1071747
1071843
1071939
1072034
1072132
1072229
1072325
1072421
1072517
1072613
1072709
1072805
1072900
1072996
1073091
1073187
1073284
1073381
1073477
1073573
1073669
1073770
1073872
1073972
1074071
1074179
1074287
1074389
1074489
1074588
1074687
1074785
1074884
1074983
1075081
1075180
1075279
1075379
1075478
1075577
1075676
1075776
1075875
1075974
1076073
1076180
1076285
1076387
1076488
1076590
1076702
1076812
1076922
1077029
1077138
1077260
1077371
1077484
1077594
1077700
1077804
1077909
1078013
1078115
1078217
1078319
1078421
1078523
1078625
1078725
1078826
1078925
1079025
1079127
1079226
1079326
1079424
1079522
1079623
1079725
1079867
1079996
1080128
1080255
1080383
1080508
1080637
1080764
1080894
1081023
1081150
1081265
1081373
1081476
1081580
1081682
1081782
1081882
1081980
1082079
1082176
1082274
1082372
1082470
1082567
1082664
1082761
1082857
1082954
1083050
1083146
1083242
1083339
1083434
1083530
1083626
1083722
1083818
1083914
1084010
1084106
1084201
1084297
1084392
1084487
1084583
1084678
1084773
1084869
1084964
1085060
1085156
1085253
1085350
1085447
1085543
1085639
1085736
1085832
1085928
1086024
1086120
1086217
1086314
1086410
1086507
1086604
1086702
1086801
1086899
1086997
1087103
1087241
1087365
1087479
1087585
1087688
1087789
1087890
1087989
1088088
1088188
1088287
1088386
1088484
1088582
1088681
1088779
1088876
1088974
1089072
1089170
1089266
1089364
1089461
1089558
1089655
1089752
1089848
1089944
1090041
1090137
1090233
1090330
1090426
1090522
1090619
1090715
1090811
1090907
1091003
1091100
1091197
1091296
1091400
1091518
1091634
1091739
1091845
1091948
1092049
1092150
1092250
1092350
1092453
1092554
1092655
1092755
1092854
1092953
1093053
1093152
1093250
1093349
1093448
1093546
1093644
1093743
1093841
1093939
1094037
1094135
1094233
1094331
1094429
1094529
1094630
1094735
1094839
1094940
1095041
1095140
1095239
1095339
1095438
1095537
1095637
1095736
1095834
1095934
1096039
1096148
1096254
1096360
1096466
1096572
1096681
1096795
1096915
1097056
1097182
1097308
1097432
1097561
1097687
1097815
1097945
1098063
1098167
1098266
1098361
1098456
1098550
1098643
1098735
1098828
1098920
1099012
1099103
1099194
1099285
1099375
1099466
1099556
1099646
1099737
1099827
1099917
1100007
1100097
1100187
1100276
1100366
1100455
1100545
1100634
1100724
1100813
1100902
1100991
1101080
1101170
1101259
1101349
1101438
1101527
1101617
1101706
1101795
1101884
1101973
1102062
1102151
1102240
1102329
1102418
1102507
1102596
1102686
1102775
1102865
1102954
1103044
1103141
1103272
1103388
1103500
1103614
1103720
1103844
1103966
1104090
1104215
1104339
1104467
1104598
1104727
1104855
1104969
1105072
1105171
1105268
1105363
1105459
1105555
1105658
1105794
1105927
1106059
1106187
1106319
1106454
1106587
1106727
1106867
1107012
1107164
1107312
1107461
1107607
1107749
1107904
1108046
1108195
1108336
1108479
1108618
1108762
1108904
1109052
1109197
1109345
1109495
1109642
1109787
1109929
1110069
1110212
1110350
1110493
1110632
1110772
1110912
1111050
1111190
1111331
1111470
1111610
1111745
1111883
1112023
1112158
1112296
1112433
1112570
1112708
1112842
1112979
1113117
1113253
1113388
1113516
1113630
1113745
1113859
1113970
1114079
1114185
1114290
1114393
1114495
1114595
1114695
1114794
1114892
1114989
1115085
1115181
1115276
1115370
1115464
1115558
1115651
1115743
1115836
1115929
1116021
1116114
1116207
1116300
1116392
1116484
1116576
1116669
1116762
1116854
1116947
1117042
1117137
1117234
1117330
1117428
1117533
1117638
1117744
1117859
1117966
1118066
1118174
1118321
1118447
1118574
1118703
1118830
1118959
1119090
1119222
1119357
1119490
1119622
1119747
1119858
1119965
1120072
1120182
1120290
1120393
1120494
1120595
1120695
1120793
1120892
1120989
1121086
1121184
1121281
1121384
1121493
1121627
1121750
1121868
1121976
1122080
1122181
1122285
1122385
1122485
1122583
1122681
1122778
1122875
1122972
1123069
1123166
1123262
1123358
1123454
1123550
1123647
1123745
1123844
1123960
1124101
1124230
1124359
1124489
1124618
1124747
1124877
1125008
1125137
1125269
1125406
1125543
1125679
1125820
1125960
1126107
1126259
1126409
1126564
1126726
1126881
1127048
1127211
1127368
1127528
1127677
1127824
1127963
1128103
1128241
1128374
1128505
1128626
1128745
1128861
1128972
1129084
1129194
1129303
1129413
1129523
1129634
1129748
1129892
1130027
1130165
1130303
1130438
1130573
1130709
1130844
1130978
1131105
1131216
1131328
1131437
1131550
1131659
1131768
1131875
1131981
1132086
1132192
1132304
1132417
1132528
1132644
1132760
1132874
1133028
1133161
1133292
1133424
1133553
1133685
1133818
1133949
1134081
1134216
1134349
1134483
1134617
1134748
1134879
1135016
1135147
1135278
1135415
1135548
1135683
1135816
1135949
1136082
1136211
1136337
1136453
1136567
1136680
1136792
1136901
1137010
1137121
1137230
1137340
1137452
1137597
1137730
1137866
1137997
1138131
1138268
1138403
1138540
1138676
1138814
1138952
1139089
1139229
1139370
1139512
1139658
1139798
1139941
1140084
1140223
1140363
1140501
1140635
1140769
1140887
1141000
1141110
1141220
1141329
1141438
1141546
1141654
1141760
1141867
1141973
1142079
1142184
1142289
1142410
1142527
1142639
1142748
1142856
1142962
1143068
1143175
1143281
1143391
1143548
1143688
1143826
1143966
1144106
1144249
1144391
1144535
1144682
1144824
1144970
1145116
1145261
1145407
1145549
1145691
1145830
1145963
1146080
1146197
1146315
1146430
1146543
1146656
1146799
1146930
1147056
1147192
1147324
1147463
1147593
1147724
1147859
1147989
1148128
1148260
1148391
1148522
1148649
1148782
1148923
1149064
1149200
1149336
1149474
1149605
1149734
1149847
1149958
1150068
1150177
1150286
1150395
1150503
1150612
1150723
1150842
1150959
1151106
1151246
1151382
1151520
1151659
1151797
1151938
1152075
1152213
1152352
1152487
1152628
1152769
1152907
1153048
1153194
1153335
1153477
1153620
1153759
1153900
1154041
1154179
1154316
1154449
1154589
1154726
1154862
1155004
1155140
1155276
1155411
1155544
1155680
1155810
1155941
1156074
1156204
1156338
1156473
1156606
1156740
1156875
1157009
1157149
1157283
1157418
1157556
1157688
1157809
1157921
1158031
1158139
1158245
1158351
1158457
1158562
1158667
1158775
1158886
1158996
1159144
1159277
1159411
1159550
1159686
1159821
1159958
1160092
1160229
1160369
1160506
1160644
1160785
1160922
1161061
1161198
1161337
1161477
1161613
1161752
1161888
1162024
1162157
1162288
1162421
1162557
1162691
1162828
1162965
1163100
1163240
1163376
1163511
1163646
1163778
1163911
1164049
1164184
1164316
1164452
1164587
1164717
1164849
1164985
1165120
1165254
1165392
1165526
1165659
1165800
1165937
1166073
1166213
1166352
1166490
1166629
1166765
1166902
1167043
1167178
1167315
1167454
1167589
1167724
1167861
1167994
1168136
1168278
1168415
1168556
1168699
1168839
1168981
1169121
1169260
1169400
1169536
1169674
1169808
1169938
1170076
1170212
1170343
1170477
1170615
1170749
1170889
1171026
1171163
1171300
1171432
1171556
1171675
1171805
1171922
1172039
1172154
1172266
1172377
1172515
1172647
1172771
1172898
1173036
1173168
1173307
1173443
1173578
1173717
1173857
1173995
1174139
1174285
1174426
1174569
1174716
1174859
1175007
1175148
1175293
1175437
1175579
1175720
1175854
1175977
1176092
1176209
1176324
1176445
1176559
1176671
1176817
1176947
1177077
1177218
1177355
1177489
1177625
1177763
1177897
1178034
1178169
1178301
1178419
1178529
1178636
1178741
1178846
1178948
1179050
1179154
1179258
1179363
1179466
1179569
1179671
1179772
1179876
1180000
1180112
1180254
1180390
1180517
1180642
1180766
1180873
1180981
1181126
1181256
1181385
1181515
1181641
1181770
1181900
1182027
1182159
1182289
1182403
1182508
1182625
1182739
1182845
1182952
1183055
1183157
1183260
1183362
1183463
1183563
1183663
1183763
1183863
1183963
1184065
1184213
1184348
1184481
1184615
1184748
1184883
1185023
1185160
1185300
1185442
1185580
1185723
1185865
1186006
1186151
1186295
1186439
1186586
1186728
1186874
1187020
1187164
1187308
1187448
1187588
1187725
1187864
1188001
1188134
1188265
1188395
1188509
1188649
1188789
1188923
1189059
1189197
1189332
1189465
1189600
1189732
1189872
1190014
1190152
1190296
1190442
1190586
1190738
1190886
1191034
1191187
1191334
1191483
1191634
1191776
1191921
1192065
1192203
1192342
1192472
1192593
1192735
1192868
1192997
1193135
1193271
1193406
1193539
1193667
1193796
1193923
1194045
1194168
1194303
1194430
1194555
1194675
1194791
1194909
1195044
1195174
1195302
1195439
1195576
1195709
1195845
1195981
1196115
1196252
1196387
1196523
1196661
1196796
1196933
1197069
1197200
1197327
1197462
1197585
1197701
1197837
1197965
1198092
1198220
1198355
1198490
1198622
1198760
1198893
1199029
1199165
1199303
1199445
1199584
1199726
1199871
1200012
1200158
1200307
1200451
1200600
1200746
1200888
1201028
1201146
1201260
1201374
1201481
1201588
1201694
1201798
1201902
1202006
1202112
1202216
1202324
1202429
1202534
1202671
1202805
1202936
1203071
1203201
1203331
1203465
1203599
1203734
1203873
1204008
1204147
1204286
1204422
1204565
1204707
1204852
1205003
1205146
1205299
1205446
1205594
1205745
1205888
1206033
1206164
1206283
1206399
1206507
1206619
1206727
1206833
1206942
1207055
1207162
1207270
1207385
1207495
1207605
1207718
1207832
1207944
1208085
1208221
1208353
1208489
1208623
1208758
1208897
1209032
1209169
1209308
1209446
1209585
1209724
1209863
1210001
1210135
1210267
1210407
1210541
1210673
1210801
1210927
1211057
1211182
1211310
1211440
1211565
1211690
1211823
1211950
1212076
1212213
1212343
1212476
1212611
1212741
1212875
1213007
1213135
1213265
1213402
1213532
1213668
1213798
1213930
1214066
1214199
1214335
1214469
1214605
1214743
1214878
1215017
1215155
1215291
1215431
1215569
1215705
1215844
1215980
1216116
1216253
1216383
1216512
1216630
1216745
1216871
1217011
1217141
1217270
1217394
1217512
1217645
1217767
1217889
1218024
1218150
1218279
1218407
1218533
1218662
1218785
1218897
1218999
1219101
1219201
1219299
1219397
1219494
1219592
1219689
1219787
1219890
1219992
1220124
1220256
1220384
1220517
1220647
1220775
1220903
1221027
1221136
1221240
1221348
1221508
1221640
1221758
1221864
1221964
1222063
1222160
1222258
1222354
1222451
1222547
1222644
1222742
1222838
1222935
1223032
1223131
1223231
1223333
1223433
1223533
1223635
1223736
1223836
1223935
1224035
1224134
1224234
1224337
1224443
1224577
1224706
1224834
1224959
1225086
1225214
1225343
1225470
1225594
1225702
1225807
1225911
1226013
1226116
1226252
1226381
1226510
1226642
1226772
1226902
1227036
1227171
1227311
1227457
1227612
1227770
1227931
1228110
1228284
1228447
1228619
1228768
1228919
1229065
1229207
1229353
1229491
1229628
1229757
1229881
1230003
1230122
1230237
1230346
1230455
1230563
1230668
1230774
1230878
1230982
1231085
1231194
1231326
1231451
1231581
1231708
1231840
1231973
1232104
1232236
1232366
1232497
1232632
1232766
1232898
1233032
1233165
1233298
1233435
1233567
1233702
1233839
1233973
1234110
1234248
1234385
1234523
1234660
1234797
1234936
1235070
1235210
1235346
1235483
1235618
1235748
1235880
1236020
1236155
1236293
1236429
1236567
1236709
1236848
1236988
1237130
1237268
1237411
1237550
1237688
1237812
1237925
1238039
1238148
1238257
1238363
1238468
1238573
1238677
1238789
1238896
1239010
1239152
1239283
1239420
1239555
1239688
1239824
1239962