Mammal: mouse
Fs: 1000
Integration: ECG

48
148
259
366
470
570
664
758
856
966
1071
1172
1278
1392
1499
1601
1698
1793
1888
1981
2074
2166
2258
2349
2440
2530
2618
2712
2812
2909
3002
3094
3187
3279
3369
3460
3554
3649
3743
3839
3932
4024
4116
4215
4324
4434
4545
4648
4752
4855
4952
5045
5137
5231
5324
5415
5505
5594
5683
5772
5859
5946
6033
6120
6206
6292
6378
6463
6547
6632
6718
6809
6898
6986
7073
7158
7242
7328
7414
7499
7584
7668
7752
7837
7925
8011
8097
8186
8273
8360
8447
8534
8622
8712
8802
8894
8989
9088
9189
9290
9389
9486
9585
9680
9771
9862
9957
10047
10138
10227
10323
10415
10514
10607
10701
10791
10881
10971
11059
11145
11229
11316
11404
11492
11578
11665
11755
11845
11934
12022
12109
12197
12283
12368
12453
12538
12622
12706
12789
12874
12960
13051
13148
13241
13333
13433
13528
13625
13724
13825
13922
14018
14114
14205
14293
14379
14465
14551
14636
14721
14806
14891
14977
15065
15157
15247
15335
15426
15518
15606
15692
15781
15873
15969
16061
16152
16245
16348
16456
16562
16668
16772
16882
16987
17095
17206
17313
17416
17527
17641
17755
17866
17969
18066
18163
18262
18358
18454
18561
18670
18783
18896
18998
19104
19204
19303
19401
19494
19584
19673
19762
19853
19945
20046
20153
20263
20385
20504
20637
20771
20897
21032
21144
21254
21373
21504
21614
21738
21849
21959
22065
22164
22261
22358
22472
22595
22709
22814
22927
23051
23190
23312
23439
23570
23685
23800
23925
24054
24179
24296
24407
24517
24627
24736
24844
24950
25050
25148
25246
25353
25478
25604
25727
25852
25989
26126
26256
26375
26494
26618
26737
26850
26972
27091
27211
27328
27448
27558
27659
27759
27862
27972
28089
28211
28335
28457
28583
28703
28823
28949
29077
29204
29341
29486
29611
29741
29875
30005
30137
30261
30374
30507
30649
30775
30905
31045
31158
31264
31383
31518
31645
31772
31896
32023
32154
32286
32415
32539
32670
32794
32918
33041
33163
33299
33436
33555
33665
33779
33891
34017
34153
34271
34388
34506
34613
34712
34810
34907
35006
35110
35228
35348
35469
35592
35716
35846
35961
36086
36194
36299
36397
36493
36587
36681
36773
36865
36956
37046
37138
37240
37340
37445
37562
37677
37787
37894
38002
38111
38221
38323
38421
38525
38623
38715
38804
38892
38978
39066
39152
39239
39327
39427
39544
39659
39764
39866
39968
40074
40188
40303
40423
40542
40659
40776
40898
41022
41137
41251
41370
41484
41608
41729
41846
41970
42100
42228
42338
42445
42553
42662
42788
42910
43028
43134
43232
43326
43417
43511
43609
43709
43836
43950
44064
44198
44318
44437
44564
44685
44806
44932
45057
45191
45301
45408
45524
45648
45773
45889
46001
46114
46233
46355
46469
46579
46704
46833
46967
47102
47225
47342
47461
47575
47684
47792
47895
47995
48094
48193
48292
48391
48515
48638
48758
48882
49003
49118
49232
49349
49480
49604
49726
49861
50009
50132
50255
50377
50524
50653
50762
50865
50967
51088
51198
51302
51404
51507
51609
51710
51811
51918
52040
52162
52278
52390
52509
52628
52753
52868
52988
53107
53230
53339
53439
53541
53643
53742
53857
53977
54101
54222
54334
54441
54548
54657
54770
54888
55000
55110
55227
55345
55457
55571
55688
55804
55936
56057
56168
56272
56370
56465
56561
56660
56774
56879
56978
57075
57171
57275
57385
57495
57598
57704
57805
57902
57996
58089
58183
58293
58412
58534
58650
58776
58903
59006
59099
59189
59279
59368
59457
59545
59633
59721
59809
59901
59997
60092
60187
60283
60379
60473
60572
60670
60776
60877
60980
61086
61194
61303
61415
61526
61632
61744
61854
61966
62084
62199
62312
62435
62552
62658
62765
62871
62972
63070
63165
63268
63378
63489
63591
63691
63786
63893
63998
64100
64205
64307
64405
64499
64595
64695
64796
64895
64999
65107
65211
65308
65401
65494
65586
65676
65764
65853
65941
66030
66120
66214
66318
66430
66543
66660
66776
66887
66997
67105
67208
67314
67422
67533
67643
67754
67863
67981
68105
68226
68329
68423
68514
68605
68696
68787
68880
68979
69089
69196
69311
69427
69545
69674
69803
69934
70078
70203
70328
70456
70571
70671
70781
70889
70990
71089
71182
71277
71378
71482
71589
71696
71804
71914
72022
72139
72264
72388
72505
72618
72727
72835
72944
73073
73194
73303
73414
73540
73661
73775
73888
73994
74104
74210
74311
74408
74504
74599
74695
74794
74909
75016
75124
75229
75332
75434
75536
75637
75742
75852
75967
76086
76218
76344
76467
76599
76730
76850
76982
77125
77260
77366
77463
77560
77657
77770
77891
78013
78129
78244
78482
78591
78697
78801
78912
79035
79164
79281
79398
79505
79623
79742
79855
79964
80073
80182
80285
80385
80492
80599
80712
80827
80950
81063
81175
81294
81414
81534
81648
81769
81882
82007
82133
82249
82366
82484
82592
82698
82800
82898
82997
83098
83209
83322
83432
83547
83662
83773
83879
83979
84088
84197
84312
84427
84535
84642
84748
84854
84956
85057
85165
85272
85380
85487
85589
85694
85799
85909
86021
86138
86257
86372
86492
86613
86729
86842
86954
87064
87174
87288
87410
87525
87639
87750
87860
87983
88117
88236
88358
88476
88602
88739
88849
88955
89069
89181
89284
89381
89474
89575
89678
89790
89910
90028
90147
90257
90363
90474
90607
90728
90833
90932
91041
91151
91266
91387
91508
91624
91738
91860
91979
92088
92196
92304
92411
92514
92627
92747
92884
93007
93118
93223
93335
93456
93572
93681
93803
93918
94031
94152
94272
94379
94489
94596
94708
94815
94933
95054
95173
95286
95398
95512
95625
95742
95869
95995
96109
96229
96359
96494
96613
96720
96821
96923
97029
97137
97256
97367
97469
97567
97669
97769
97867
97970
98080
98192
98307
98423
98532
98649
98764
98883
99005
99124
99250
99376
99506
99631
99758
99883
100004
100119
100236
100350
100455
100549
100647
100751
100847
100940
101033
101127
101218
101310
101404
101512
101624
101741
101850
101961
102072
102179
102285
102394
102500
102608
102714
102819
102929
103037
103155
103268
103380
103500
103615
103734
103844
103955
104071
104187
104301
104411
104519
104633
104748
104851
104952
105050
105145
105238
105329
105420
105511
105603
105695
105786
105881
105979
106080
106184
106288
106390
106491
106591
106696
106800
106913
107028
107143
107266
107387
107502
107616
107729
107845
107960
108073
108186
108298
108402
108509
108619
108724
108824
108929
109039
109147
109248
109344
109443
109550
109659
109771
109880
109987
110097
110202
110303
110412
110523
110628
110733
110833
110930
111026
111124
111227
111343
111456
111570
111677
111783
111896
112015
112135
112240
112347
112456
112564
112668
112768
112875
112988
113099
113214
113324
113430
113533
113640
113749
113856
113962
114075
114197
114311
114424
114537
114659
114774
114887
115005
115118
115228
115330
115429
115524
115620
115726
115842
115962
116073
116187
116301
116420
116527
116628
116724
116818
116915
117011
117114
117223
117332
117442
117550
117658
117766
117874
117982
118090
118204
118314
118424
118530
118637
118747
118862
118973
119078
119185
119294
119410
119526
119642
119757
119871
119984
120098
120208
120326
120447
120562
120663
120758
120850
120944
121039
121132
121225
121319
121412
121510
121620
121723
121823
121930
122040
122153
122266
122376
122492
122605
122715
122825
122933
123044
123171
123303
123411
123525
123643
123766
123880
124002
124134
124240
124343
124455
124563
124670
124774
124887
125008
125126
125246
125366
125478
125589
125715
125840
125957
126079
126197
126319
126440
126551
126662
126786
126922
127041
127157
127268
127376
127489
127610
127729
127849
127956
128061
128166
128284
128405
128511
128612
128709
128816
128925
129040
129160
129284
129418
129552
129669
129776
129883
129996
130114
130246
130358
130476
130601
130718
130839
130971
131114
131247
131354
131466
131593
131730
131850
131975
132096
132209
132321
132431
132535
132635
132745
132858
132974
133082
133183
133282
133385
133500
133619
133739
133861
133981
134092
134204
134313
134429
134549
134660
134771
134879
134987
135097
135204
135311
135418
135532
135645
135758
135867
135972
136069
136162
136253
136343
136433
136523
136613
136703
136793
136883
136973
137062
137152
137241
137330
137421
137513
137625
137738
137845
137949
138058
138169
138280
138389
138501
138628
138745
138854
138972
139098
139225
139351
139486
139614
139730
139857
139985
140124
140257
140372
140476
140588
140696
140799
140901
141000
141100
141201
141306
141406
141523
141645
141756
141877
141995
142113
142239
142353
142458
142555
142651
142745
142839
142933
143027
143119
143211
143303
143394
143484
143579
143685
143786
143882
143980
144079
144176
144269
144365
144462
144560
144654
144744
144833
144922
145010
145096
145182
145269
145355
145440
145524
145608
145693
145780
145880
145987
146097
146202
146315
146430
146550
146672
146778
146902
147030
147134
147227
147323
147419
147513
147607
147702
147804
147912
148033
148157
148279
148405
148524
148642
148744
148850
148958
149058
149167
149276
149386
149499
149606
149709
149810
149910
150007
150101
150194
150288
150380
150472
150563
150654
150746
150840
150938
151038
151142
151244
151345
151443
151537
151633
151730
151833
151939
152046
152151
152260
152370
152476
152575
152672
152776
152879
152979
153073
153163
153264
153368
153470
153573
153683
153786
153891
154006
154112
154226
154330
154432
154532
154627
154720
154816
154920
155025
155137
155249
155357
155460
155569
155678
155786
155910
156039
156153
156259
156367
156472
156574
156669
156763
156856
156948
157040
157133
157226
157319
157411
157508
157604
157702
157800
157898
158000
158105
158208
158315
158426
158532
158638
158750
158872
158997
159122
159236
159344
159454
159558
159665
159769
159866
159959
160053
160146
160239
160332
160425
160516
160607
160699
160791
160882
160972
161063
161161
161268
161367
161464
161565
161666
161764
161867
161975
162090
162207
162315
162425
162545
162653
162756
162855
162953
163050
163147
163246
163345
163443
163538
163641
163742
163849
163960
164065
164167
164267
164362
164457
164552
164648
164742
164835
164931
165026
165121
165218
165320
165421
165517
165611
165708
165810
165918
166028
166130
166227
166323
166414
166504
166594
166684
166773
166861
166950
167044
167143
167243
167341
167444
167543
167639
167734
167830
167926
168020
168111
168201
168289
168377
168466
168554
168641
168729
168816
168903
168990
169077
169163
169250
169337
169425
169513
169603
169693
169783
169878
169971
170068
170159
170251
170347
170446
170543
170636
170728
170821
170910
170999
171086
171174
171260
171346
171433
171519
171606
171691
171778
171867
171956
172043
172131
172218
172310
172403
172492
172580
172667
172753
172840
172926
173012
173097
173185
173275
173364
173453
173541
173631
173726
173829
173932
174039
174139
174239
174335
174427
174522
174622
174722
174817
174916
175011
175101
175189
175277
175365
175452
175539
175625
175711
175799
175889
175979
176070
176161
176253
176349
176442
176540
176640
176736
176830
176924
177017
177107
177196
177284
177371
177459
177548
177641
177746
177847
177953
178067
178181
178294
178404
178516
178632
178748
178867
178978
179103
179213
179316
179423
179538
179653
179786
179912
180052
180179
180307
180450
180578
180695
180824
180968
181086
181197
181307
181439
181564
181680
181785
181891
182000
182106
182218
182338
182452
182572
182690
182809
182918
183023
183127
183236
183343
183446
183547
183645
183744
183842
183941
184039
184136
184230
184324
184418
184511
184603
184695
184785
184874
184963
185052
185140
185228
185315
185402
185489
185574
185659
185744
185828
185913
185997
186082
186167
186252
186338
186424
186507
186592
186677
186764
186851
186938
187028
187125
187218
187317
187413
187505
187597
187696
187794
187888
187981
188076
188167
188254
188341
188429
188514
188600
188687
188773
188858
188943
189028
189113
189197
189284
189376
189482
189589
189694
189798
189899
189999
190097
190191
190280
190369
190457
190544
190631
190717
190805
190892
190980
191067
191153
191242
191332
191421
191510
191599
191687
191780
191886
191994
192098
192206
192315
192429
192553
192676
192813
192952
193070
193191
193298
193395
193492
193608
193728
193836
193946
194053
194154
194248
194353
194455
194567
194685
194795
194905
195010
195115
195221
195327
195429
195531
195645
195755
195871
195989
196096
196198
196298
196401
196503
196601
196705
196809
196913
197019
197134
197242
197357
197466
197571
197675
197778
197876
197987
198099
198201
198308
198416
198528
198637
198748
198848
198959
199072
199184
199291
199393
199486
199584
199688
199790
199895
199992
200083
200177
200274
200379
200483
200583
200682
200783
200882
200989
201097
201203
201310
201421
201531
201643
201765
201894
202011
202119
202228
202344
202464
202575
202679
202780
202878
202973
203072
203173
203273
203370
203467
203573
203684
203796
203910
204019
204134
204252
204371
204488
204605
204720
204845
204965
205085
205196
205317
205437
205547
205658
205766
205867
205964
206057
206151
206250
206364
206487
206612
206735
206851
206969
207086
207211
207332
207460
207577
207697
207831
207942
208045
208145
208242
208338
208434
208530
208638
208764
208883
208999
209112
209220
209324
209428
209535
209643
209753
209860
209980
210098
210208
210315
210421
210526
210637
210748
210865
210973
211086
211195
211302
211406
211510
211620
211731
211843
211962
212078
212183
212288
212397
212507
212623
212736
212855
212979
213108
213229
213341
213450
213560
213667
213777
213887
214000
214106
214220
214329
214437
214540
214640
214741
214846
214948
215058
215167
215276
215395
215515
215635
215760
215878
215992
216103
216220
216338
216458
216579
216691
216800
216907
217015
217123
217228
217330
217431
217549
217655
217759
217869
217984
218092
218196
218299
218406
218509
218612
218719
218827
218944
219058
219172
219279
219381
219478
219574
219676
219787
219893
220000
220105
220218
220327
220436
220543
220646
220751
220852
220949
221049
221160
221276
221389
221502
221617
221733
221860
221987
222126
222257
222374
222489
222604
222716
222831
222947
223080
223203
223323
223437
223552
223657
223760
223860
223958
224055
224165
224280
224396
224510
224627
224744
224859
224972
225086
225193
225303
225413
225517
225624
225738
225859
225976
226085
226190
226293
226389
226857
226955
227049
227143
227242
227350
227451
227552
227650
227753
227856
227955
228061
228169
228274
228381
228493
228600
228703
228802
228897
228990
229080
229170
229259
229347
229435
229524
229612
229701
229793
229904
230010
230112
230219
230322
230423
230532
230639
230742
230840
230932
231023
231114
231205
231302
231411
231527
231639
231742
231853
231966
232076
232181
232283
232383
232485
232583
232676
232769
232862
232963
233061
233168
233275
233378
233483
233588
233692
233795
233902
234004
234101
234194
234288
234383
234481
234578
234678
234782
234889
235002
235107
235207
235303
235398
235490
235586
235693
235808
235922
236021
236113
236205
236301
236413
236516
236625
236735
236854
236967
237071
237171
237263
237361
237457
237556
237660
237766
237876
237987
238092
238190
238289
238390
238492
238596
238697
238795
238897
238995
239089
239183
239276
239370
239463
239559
239660
239759
239855
239951
240046
240139
240233
240343
240459
240576
240682
240792
240906
241028
241159
241259
241361
241473
241586
241690
241799
241915
242019
242125
242235
242350
242468
242576
242677
242777
242881
242980
243076
243180
243287
243393
243502
243613
243726
243846
243972
244101
244215
244332
244464
244579
244688
244800
244919
245048
245179
245306
245436
245558
245666
245767
245871
245976
246090
246201
246323
246455
246570
246679
246795
246916
247043
247164
247287
247407
247522
247639
247766
247900
248034
248156
248270
248381
248483
248597
248718
248838
248951
249066
249179
249290
249402
249523
249642
249758
249893
250022
250141
250277
250415
250545
250653
250759
250873
250981
251088
251202
251313
251420
251530
251641
251754
251862
251964
252066
252168
252267
252368
252470
252593
252722
252847
252976
253109
253239
253371
253512
253629
253753
253886
254011
254122
254228
254328
254423
254520
254617
254720
254834
254939
255049
255160
255280
255399
255513
255628
255744
255860
255993
256128
256268
256378
256484
256586
256691
256805
256933
257046
257151
257258
257362
257468
257579
257696
257818
257939
258060
258179
258295
258413
258528
258651
258761
258872
258991
259105
259222
259333
259454
259580
259707
259836
259949
260066
260198
260327
260437
260538
260635
260733
260832
260928
261029
261156
261277
261404
261527
261648
261758
261890
262046
262188
262319
262437
262572
262690
262822
262935
263051
263160
263258
263362
263478
263594
263711
263833
263947
264056
264159
264262
264365
264483
264605
264734
264854
264976
265100
265221
265332
265449
265570
265692
265830
265971
266083
266187
266295
266407
266541
266656
266768
266876
266980
267082
267182
267282
267382
267487
267595
267707
267830
267953
268075
268195
268317
268446
268580
268696
268806
268918
269028
269130
269227
269322
269418
269514
269610
269709
269813
269931
270046
270160
270269
270376
270484
270594
270711
270835
270956
271069
271177
271281
271388
271500
271609
271719
271829
271935
272039
272135
272233
272329
272423
272516
272607
272697
272788
272882
272987
273102
273210
273315
273421
273530
273638
273741
273841
273944
274053
274166
274283
274400
274515
274621
274731
274840
274946
275049
275144
275244
275355
275463
275573
275685
275800
275910
276017
276121
276218
276312
276404
276500
276599
276701
276817
276931
277041
277147
277252
277364
277479
277585
277681
277775
277868
277961
278053
278146
278247
278355
278461
278569
278674
278782
278897
279018
279129
279238
279344
279448
279562
279682
279788
279895
280003
280105
280206
280308
280411
280512
280613
280714
280816
280925
281034
281139
281237
281334
281430
281528
281643
281765
281883
282006
282124
282232
282338
282453
282572
282697
282817
282924
283020
283113
283207
283300
283391
283484
283576
283667
283759
283851
283941
284039
284138
284232
284330
284434
284540
284640
284744
284848
284950
285051
285151
285252
285358
285463
285563
285670
285771
285869
285973
286086
286202
286315
286417
286516
286615
286710
286811
286932
287052
287169
287286
287394
287497
287593
287690
287790
287885
287983
288084
288182
288284
288392
288508
288619
288733
288851
288959
289070
289190
289296
289407
289526
289634
289738
289848
289956
290062
290168
290274
290381
290491
290601
290713
290820
290928
291042
291148
291255
291368
291475
291584
291695
291805
291910
292020
292131
292241
292345
292455
292565
292678
292789
292906
293013
293121
293226
293325
293422
293519
293618
293720
293825
293933
294048
294157
294264
294367
294473
294581
294689
294795
294898
294998
295101
295201
295298
295394
295489
295582
295676
295771
295867
295965
296073
296180
296285
296386
296481
296574
296672
296779
296888
297004
297113
297217
297318
297421
297532
297638
297737
297833
297929
298035
298136
298234
298337
298435
298531
298627
298722
298819
298917
299013
299109
299208
299315
299416
299516
299621
299727
299833
299940
300048
300157
300261
300362
300464
300568
300670
300772
300879
300991
301107
301224
301334
301452
301572
301694
301801
301904
302005
302104
302203
302298
302394
302492
302597
302705
302813
302918
303022
303131
303236
303336
303435
303546
303652
303760
303865
303969
304071
304168
304262
304356
304448
304546
304645
304746
304844
304940
305032
305131
305240
305345
305453
305565
305675
305776
305880
305990
306102
306222
306331
306432
306528
306622
306716
306809
306908
307017
307118
307223
307329
307430
307539
307647
307753
307864
307970
308079
308191
308299
308412
308527
308631
308731
308830
308926
309036
309147
309255
309357
309455
309548
309647
309753
309855
309961
310071
310177
310277
310375
310479
310588
310691
310794
310897
310997
311102
311207
311315
311420
311520
311617
311716
311818
311924
312031
312136
312239
312343
312448
312549
312649
312744
312840
312936
313028
313119
313209
313300
313390
313481
313572
313663
313755
313848
313946
314044
314140
314237
314339
314441
314543
314646
314751
314860
314972
315084
315204
315306
315413
315518
315617
315712
315805
315898
316175
316266
316359
316454
316646
316740
316835
316938
317042
317146
317248
317353
317459
317566
317678
317789
317899
317999
318100
318207
318318
318434
318549
318677
318803
318928
319045
319156
319257
319354
319449
319549
319656
319772
319889
319995
320110
320214
320319
320427
320538
320644
320748
320850
320955
321057
321160
321258
321357
321466
321579
321688
321800
321913
322021
322139
322263
322388
322500
322608
322722
322849
322957
323060
323171
323276
323377
323481
323584
323690
323800
323915
324037
324153
324275
324390
324517
324644
324752
324853
324953
325065
325176
325282
325391
325503
325612
325714
325826
325944
326055
326159
326276
326389
326498
326606
326710
326819
326923
327028
327134
327235
327334
327432
327532
327629
327726
327825
327922
328025
328125
328227
328331
328427
328520
328614
328705
328796
328887
328976
329065
329155
329244
329332
329421
329514
329606
329701
329795
329889
329985
330084
330180
330276
330373
330465
330559
330654
330745
330838
330934
331026
331119
331216
331315
331409
331507
331602
331700
331797
331899
331998
332094
332188
332281
332371
332467
332568
332665
332757
332854
332954
333055
333162
333268
333371
333473
333581
333686
333785
333880
333974
334066
334159
334251
334344
334439
334533
334627
334721
334819
334916
335016
335114
335210
335305
335403
335497
335598
335700
335803
335907
336016
336128
336235
336341
336441
336537
336632
336726
336819
336911
337003
337094
337184
337274
337363
337453
337542
337631
337720
337809
337898
337994
338102
338203
338297
338389
338486
338589
338692
338798
338898
339100
339197
339294
339396
339504
339624
339731
339830
339930
340028
340127
340221
340313
340408
340503
340607
340715
340820
340925
341029
341131
341235
341337
341440
341549
341659
341769
341878
341990
342105
342216
342330
342433
342538
342639
342737
342832
342927
343021
343116
343216
343319
343427
343538
343649
343752
343858
343963
344069
344179
344286
344403
344521
344632
344734
344841
344956
345066
345172
345282
345393
345505
345629
345752
345866
345975
346089
346197
346314
346427
346533
346634
346733
346833
346943
347065
347188
347300
347414
347521
347627
347748
347887
348022
348131
348234
348340
348446
348561
348670
348776
348881
348983
349088
349198
349306
349417
349533
349660
349784
349905
350018
350127
350247
350357
350463
350573
350701
350832
350960
351075
351182
351288
351398
351502
351610
351723
351833
351940
352051
352166
352283
352407
352532
352648
352763
352878
352986
353088
353191
353295
353400
353506
353611
353715
353822
353925
354024
354120
354215
354308
354401
354492
354584
354678
354773
354868
354961
355067
355172
355277
355379
355483
355586
355688
355790
355894
355998
356102
356207
356310
356417
356526
356639
356751
356865
356987
357111
357225
357327
357432
357528
357620
357713
357806
357899
357991
358087
358193
358297
358407
358521
358642
358763
358876
358989
359105
359223
359334
359442
359547
359646
359742
359835
359928
360022
360115
360207
360300
360393
360487
360589
360693
360805
360909
361006
361103
361201
361302
361404
361502
361602
361698
361792
361887
361994
362107
362221
362333
362456
362573
362695
362806
362930
363062
363196
363301
363410
363531
363646
363775
363883
364003
364130
364252
364380
364491
364603
364709
364812
364913
365015
365116
365217
365330
365460
365587
365692
365792
365887
365982
366076
366170
366265
366360
366454
366551
366665
366775
366884
367003
367123
367240
367358
367470
367586
367690
367791
367892
367988
368082
368176
368282
368394
368504
368607
368709
368818
368932
369048
369159
369274
369394
369519
369647
369789
369922
370041
370160
370280
370396
370512
370631
370743
370863
370976
371080
371184
371296
371407
371513
371617
371716
371813
371910
372008
372106
372205
372306
372416
372527
372636
372739
372846
372957
373065
373181
373294
373408
373527
373644
373756
373864
373972
374086
374197
374316
374432
374535
374635
374732
374829
374930
375043
375148
375262
375371
375474
375573
375669
375763
375855
375948
376041
376132
376222
376310
376398
376485
376572
376659
376746
376832
376917
377001
377085
377170
377253
377336
377419
377502
377586
377669
377753
377836
377919
378003
378085
378169
378262
378359
378458
378556
378652
378751
378849
378950
379054
379153
379248
379343
379436
379526
379619
379710
379810
379911
380011
380112
380210
380309
380418
380534
380650
380775
380903
381023
381146
381257
381374
381474
381568
381662
381753
381845
381938
382035
382136
382237
382332
382438
382542
382642
382747
382853
382963
383076
383185
383288
383395
383506
383619
383732
383844
383952
384058
384164
384269
384368
384463
384557
384652
384747
384848
384956
385061
385168
385280
385398
385520
385640
385761
385880
386006
386142
386260
386367
386474
386586
386692
386807
386932
387053
387176
387298
387405
387510
387618
387724
387825
387927
388025
388121
388229
388353
388472
388585
388702
388821
388939
389072
389198
389327
389445
389557
389680
389814
389939
390061
390179
390294
390413
390545
390676
390798
390922
391040
391151
391266
391386
391512
391625
391746
391868
391992
392117
392250
392384
392513
392643
392800
392914
393033
393148
393293
393403
393508
393625
393751
393888
394015
394135
394243
394346
394442
394539
394635
394739
394854
394966
395076
395183
395297
395405
395507
395607
395706
395812
395916
396015
396110
396204
396300
396404
396522
396635
396747
396861
396983
397105
397232
397363
397488
397613
397723
397843
397961
398072
398181
398295
398426
398555
398680
398796
398922
399055
399177
399297
399431
399568
399693
399818
399948
400083
400214
400343
400468
400600
400732
400861
400993
401126
401253
401366
401477
401585
401692
401800
401908
402034
402165
402296
402420
402543
402668
402798
402917
403035
403160
403288
403415
403545
403673
403794
403912
404025
404135
404258
404404
404530
404652
404781
404930
405061
405191
405337
405463
405577
405682
405789
405899
406005
406111
406225
406339
406458
406578
406699
406828
406951
407081
407205
407333
407464
407590
407721
407858
408004
408135
408272
408404
408521
408627
408730
408832
408934
409035
409138
409241
409340
409439
409537
409636
409735
409832
409927
410020
410113
410204
410294
410383
410472
410560
410648
410735
410822
410909
410997
411085
411173
411261
411347
411435
411523
411613
411702
411790
411882
411973
412067
412169
412264
412362
412458
412552
412646
412743
412837
412929
413022
413111
413202
413292
413381
413471
413561
413656
413757
413860
413968
414081
414186
414285
414382
414482
414589
414708
414814
414917
415018
415120
415222
415319
415419
415525
415628
415727
415830
415929
416026
416131
416235
416345
416446
416544
416639
416732
416826
416920
417019
417138
417248
417362
417479
417595
417708
417820
417930
418044
418149
418255
418364
418470
418579
418696
418808
418924
419046
419152
419255
419372
419478
419584
419696
419801
419910
420029
420137
420246
420352
420462
420568
420680
420784
420894
420999
421099
421205
421305
421422
421529
421637
421746
421851
421954
422068
422190
422313
422430
422544
422652
422765
422874
422982
423086
423188
423288
423396
423510
423630
423749
423885
423997
424103
424215
424337
424462
424582
424695
424802
424912
425028
425141
425254
425371
425504
425628
425751
425880
426009
426130
426253
426371
426487
426612
426727
426840
426947
427049
427150
427251
427350
427447
427543
427638
427739
427854
427966
428068
428163
428257
428349
428441
428532
428621
428711
428799
428889
428977
429065
429153
429239
429326
429416
429512
429611
429718
429824
429938
430050
430170
430282
430391
430493
430591
430687
430780
430873
430966
431058
431149
431242
431339
431439
431551
431656
431762
431875
431989
432098
432206
432320
432434
432538
432631
432727
432825
432932
433041
433156
433279
433406
433519
433627
433730
433828
433928
434037
434149
434259
434369
434484
434603
434732
434852
434987
435103
435212
435319
435428
435537
435651
435774
435900
436014
436128
436238
436350
436468
436591
436701
436816
436938
437057
437172
437292
437412
437523
437642
437778
437911
438040
438176
438297
438418
438556
438704
438833
438961
439072
439181
439294
439405
439519
439644
439775
439896
440013
440130
440266
440429
440570
440707
440825
440943
441082
441208
441323
441439
441556
441682
441813
441948
442082
442216
442333
442454
442584
442722
442868
442999
443139
443257
443373
443487
443612
443729
443848
443970
444089
444215
444338
444456
444589
444705
444829
444960
445082
445198
445318
445449
445572
445694
445813
445929
446041
446149
446257
446382
446501
446624
446754
446881
446995
447128
447244
447377
447497
447631
447757
447890
448008
448121
448231
448346
448464
448583
448698
448820
448941
449059
449170
449282
449394
449504
449621
449736
449852
449972
450092
450225
450349
450469
450593
450721
450845
450968
451089
451225
451367
451499
451634
451760
451886
452009
452135
452253
452369
452486
452604
452720
452833
452948
453061
453173
453277
453391
453516
453628
453734
453848
453967
454096
454220
454337
454462
454578
454691
454804
454932
455061
455209
455338
455449
455557
455668
455780
455901
456029
456150
456271
456393
456515
456636
456754
456872
456986
457100
457223
457348
457468
457590
457718
457835
457947
458058
458165
458270
458376
458477
458573
458671
458769
458871
458980
459084
459187
459292
459413
459534
459657
459778
459901
460029
460160
460288
460410
460527
460646
460779
460911
461046
461181
461305
461437
461572
461712
461839
461961
462084
462223
462336
462457
462588
462727
462860
462979
463096
463211
463321
463432
463561
463681
463803
463920
464038
464152
464269
464398
464521
464643
464764
464887
465002
465112
465225
465342
465462
465588
465719
465855
465989
466134
466251
466371
466493
466611
466722
466829
466945
467062
467176
467284
467392
467497
467621
467743
467858
467967
468078
468209
468343
468482
468603
468728
468843
468952
469055
469157
469264
469377
469502
469622
469755
469886
470020
470163
470281
470414
470526
470648
470771
470916
471044
471159
471277
471387
471498
471615
471740
471872
472014
472133
472249
472365
472481
472604
472723
472836
472955
473078
473193
473311
473425
473532
473634
473732
473830
473928
474024
474142
474253
474358
474456
474551
474645
474737
474829
474921
475022
475137
475254
475365
475469
475576
475687
475800
475923
476042
476148
476248
476351
476450
476546
476644
476740
476835
476933
477037
477150
477264
477377
477496
477612
477736
477861
477989
478108
478230
478339
478438
478539
478647
478752
478850
478946
479042
479140
479258
479382
479493
479614
479732
479855
479963
480064
480161
480258
480364
480464
480563
480660
480756
480851
480945
481037
481130
481223
481316
481407
481498
481589
481688
481804
481907
482007
482107
482210
482319
482427
482542
482661
482786
482911
483016
483113
483207
483301
483401
483508
483607
483702
483798
483909
484017
484133
484252
484371
484477
484577
484678
484777
484887
484996
485115
485232
485337
485449
485579
485703
485825
485942
486049
486174
486291
486404
486513
486623
486736
486847
486960
487078
487189
487296
487402
487516
487634
487749
487871
487993
488116
488247
488371
488501
488623
488745
488856
488971
489110
489255
489379
489502
489613
489721
489828
489935
490058
490194
490329
490448
490560
490670
490784
490892
491001
491108
491231
491352
491478
491603
491731
491866
491995
492133
492250
492407
492560
492698
492840
492975
493102
493281
493427
493536
493657
493821
493963
494074
494195
494320
494436
494580
494714
494838
494964
495080
495227
495352
495488
495606
495719
495832
495941
496063
496180
496292
496412
496550
496676
496790
496902
497009
497113
497217
497323
497428
497534
497642
497747
497852
497961
498063
498160
498257
498354
498450
498544
498636
498728
498820
498911
499002
499092
499181
499271
499363
499457
499551
499645
499740
499837
499941
500050
500152
500249
500355
500464
500567
500662
500761
500871
500975
501072
501165
501258
501350
501442
501542
501660
501778
501892
502013
502123
502230
502336
502442
502552
502676
502793
502910
503021
503121
503225
503349
503470
503586
503712
503859
504016
504168
504315
504458
504589
504697
504799
504900
504999
505095
505191
505289
505390
505490
505594
505703
505828
505945
506068
506186
506299
506406
506510
506618
506734
506850
506962
507081
507196
507307
507426
507546
507662
507778
507885
507997
508107
508227
508342
508456
508574
508688
508794
508900
509001
509102
509201
509299
509409
509533
509652
509774
509888
509997
510103
510209
510318
510430
510549
510658
510778
510893
511014
511135
511257
511366
511476
511587
511692
511795
511896
511998
512100
512200
512301
512420
512542
512663
512776
512901
513027
513137
513259
513369
513479
513593
513699
513801
513901
514000
514098
514197
514297
514412
514528
514656
514775
514899
515025
515157
515271
515374
515477
515576
515673
515771
515868
515965
516062
516159
516254
516349
516444
516537
516629
516721
516813
516903
516993
517083
517172
517261
517348
517436
517525
517617
517713
517817
517926
518033
518134
518231
518326
518421
518513
518604
518693
518784
518875
518965
519056
519149
519241
519333
519425
519520
519614
519709
519804
519897
519994
520091
520197
520308
520426
520538
520658
520778
520890
520995
521095
521203
521309
521424
521558
521681
521808
521932
522038
522138
522238
522334
522429
522526
522621
522716
522811
522904
523001
523104
523205
523304
523417
523519
523619
523730
523836
523943
524053
524161
524270
524378
524484
524592
524691
524787
524879
524973
525067
525161
525259
525370
525478
525586
525690
525798
525904
526006
526103
526199
526291
526383
526475
526566
526658
526749
526838
526930
527023
527114
527206
527296
527386
527478
527569
527659
527748
527836
527923
528011
528099
528186
528273
528359
528446
528533
528620
528705
528791
528877
528963
529049
529134
529221
529309
529397
529485
529570
529656
529741
529827
529917
530007
530099
530195
530284
530375
530465
530555
530644
530732
530821
530909
531004
531093
531181
531268
531356
531444
531532
531621
531709
531798
531891
531984
532079
532176
532270
532362
532454
532544
532637
532735
532844
532950
533050
533143
533236
533326
533416
533507
533597
533685
533774
533867
533959
534060
534164
534259
534350
534440
534529
534619
534707
534795
534883
534971
535057
535145
535235
535323
535413
535508
535597
535687
535777
535868
535959
536048
536137
536229
536326
536427
536523
536618
536716
536824
536932
537028
537121
537213
537305
537398
537487
537580
537667
537759
537851
537943
538034
538123
538218
538313
538407
538501
538596
538691
538790
538889
538988
539085
539184
539279
539374
539471
539568
539662
539753
539843
539933
540020
540108
540196
540285
540373
540461
540548
540633
540719
540804
540895
540988
541078
541174
541275
541366
541456
541548
541641
541731
541822
541911
542002
542092
542186
542282
542380
542475
542568
542663
542754
542845
542935
543029
543127
543223
543319
543411
543501
543591
543680
543769
543858
543947
544035
544126
544231
544334
544436
544536
544631
544728
544826
544919
545013
545107
545201
545290
545381
545471
545561
545654
545747
545844
545945
546050
546156
546261
546375
546478
546583
546684
546780
546876
546967
547063
547164
547264
547376
547485
547598
547716
547837
547950
548059
548182
548299
548426
548555
548668
548787
548913
549035
549140
549247
549369
549481
549609
549743
549859
549974
550084
550186
550291
550414
550527
550645
550779
550912
551023
551128
551243
551361
551501
551614
551723
551834
551965
552093
552217
552357
552475
552583
552703
552809
552915
553033
553153
553274
553384
553485
553585
553681
553779
553874
553972
554072
554175
554275
554374
554472
554573
554693
554800
554914
555028
555138
555245
555346
555442
555538
555634
555730
555826
555923
556021
556119
556222
556321
556417
556511
556605
556699
556793
556888
556981
557080
557184
557282
557378
557473
557569
557667
557762
557859
557954
558048
558141
558233
558327
558419
558513
558616
558733
558841
558944
559043
559138
559231
559324
559417
559509
559600
559691
559783
559874
559970
560069
560166
560260
560353
560445
560537
560628
560719
560809
560899
560989
561080
561170
561260
561350
561440
561529
561622
561718
561815
561910
562002
562093
562182
562272
562362
562451
562540
562629
562717
562806
562894
562981
563071
563160
563247
563334
563426
563515
563605
563695
563784
563875
563966
564055
564149
564246
564339
564433
564527
564620
564717
564813
564919
565023
565124
565225
565333
565448
565555
565661
565764
565869
565978
566087
566200
566307
566419
566522
566630
566740
566857
566979
567091
567195
567300
567408
567516
567633
567747
567857
567966
568074
568185
568304
568426
568545
568659
568774
568888
569003
569117
569233
569353
569471
569601
569730
569857
569968
570079
570189
570298
570406
570513
570620
570726
570829
570931
571034
571143
571251
571358
571462
571563
571663
571762
571862
571963
572067
572180
572288
572392
572493
572592
572690
572788
572896
573005
573116
573225
573337
573449
573556
573662
573777
573900
574015
574126
574235
574340
574441
574539
574635
574732
574830
574937
575051
575158
575274
575393
575514
575634
575753
575879
575998
576111
576224
576351
576476
576591
576704
576827
576955
577070
577184
577322
577452
577586
577716
577835
577969
578118
578222
578328
578431
578538
578655
578786
578910
579036
579164
579287
579407
579524
579638
579767
579885
579997
580130
580248
580378
580510
580647
580784
580908
581017
581126
581245
581363
581477
581608
581745
581868
581999
582133
582268
582407
582538
582656
582772
582906
583037
583166
583289
583411
583529
583639
583749
583883
584004
584123
584232
584353
584484
584602
584714
584823
584929
585049
585175
585300
585414
585523
585625
585727
585828
585929
586028
586127
586225
586322
586419
586515
586612
586709
586805
586902
586997
587091
587186
587279
587374
587469
587562
587656
587749
587843
587938
588034
588146
588265
588388
588506
588618
588723
588826
588936
589043
589142
589245
589354
589468
589586
589705
589820
589929
590034
590137
590234
590334
590434
590531
590637
590754
590867
590984
591104
591223
591335
591462
591588
591707
591832
591962
592085
592195
592314
592429
592539
592658
592781
592897
593025
593159
593298
593438
593562
593677
593786
593896
594003
594112
594218
594327
594435
594544
594682
594809
594937
595075
595219
595356
595479
595639
595784
595908
596070
596220
596343
596469
596599
596718
596859
596983
597104
597236
597366
597504
597627
597765
597903
598024
598157
598294
598416
598556
598685
598829
598954
599091
599220
599345
599479
599601
599719
599835
599966
600089
600228
600358
600494
600636
600770
600916
601047
601199
601334
601484
601609
601743
601865
601984
602092
602202
602309
602420
602543
602676
602815
602947
603096
603234
603382
603525
603671
603801
603963
604103
604232
604348
604464
604572
604684
604793
604903
605036
605157
605295
605419
605562
605692
605833
605977
606114
606266
606401
606552
606671
606802
606923
607059
607186
607320
607457
607584
607726
607855
608000
608124
608251
608378
608507
608646
608768
608895
609014
609148
609280
609424
609562
609714
609859
610005
610132
610248
610360
610467
610579
610691
610796
610897
610994
611092
611187
611281
611372
611462
611550
611643
611734
611823
611910
611995
612079
612164
612247
612335
612423
612518
612609
612706
612801
612894
612991
613083
613171
613257
613341
613425
613509
613592
613675
613759
613841
613924
614008
614093
614183
614274
614371
614465
614564
614660
614755
614853
614955
615051
615151
615247
615339
615425
615510
615598
615701
615813
615913
616005
616094
616183
616270
616368
616462
616565
616674
616776
616881
616982
617076
617167
617256
617354
617448
617541
617630
617717
617803
617888
617973
618057
618141
618225
618309
618393
618476
618560
618643
618726
618809
618891
618973
619054
619136
619217
619299
619380
619462
619543
619625
619706
619787
619868
619949
620030
620110
620191
620272
620352
620433
620513
620593
620674
620754
620835
620916
620997
621078
621159
621240
621320
621401
621482
621563
621643
621724
621805
621885
621966
622047
622130
622215
622307
622398
622484
622574
622662
622748
622834
622917
622999
623082
623168
623255
623340
623425
623508
623592
623675
623757
623841
623926
624012
624097
624182
624268
624356
624442
624528
624614
624700
624787
624874
624963
625050
625137
625227
625328
625430
625545
625649
625759
625872
625988
626096
626215
626319
626430
626550
626654
626761
626876
626987
627091
627208
627329
627440
627550
627650
627746
627840
627934
628026
628119
628213
628308
628411
628537
628655
628768
628873
628972
629066
629159
629253
629347
629440
629533
629626
629718
629811
629907
630005
630105
630203
630301
630410
630527
630636
630751
630861
630966
631064
631156
631247
631336
631424
631512
631599
631687
631775
631862
631950
632037
632124
632211
632299
632391
632497
632606
632705
632800
632898
632999
633110
633222
633326
633431
633540
633647
633745
633859
633980
634092
634199
634305
634405
634506
634635
634764
634875
634986
635114
635224
635337
635464
635578
635712
635841
635964
636097
636220
636360
636487
636616
636735
636844
636968
637119
637268
637420
637548
637685
637826
637946
638056
638168
638276
638377
638503
638639
638763
638892
639025
639143
639262
639396
639509
639621
639729
639832
639934
640035
640133
640231
640332
640435
640537
640636
640733
640830
640925
641020
641114
641210
641310
641414
641523
641626
641726
641823
641917
642008
642098
642189
642277
642363
642450
642534
642619
642702
642786
642869
642951
643033
643114
643195
643277
643358
643439
643520
643601
643682
643763
643844
643925
644006
644087
644168
644248
644329
644410
644491
644572
644653
644734
644816
644897
644979
645061
645143
645226
645309
645393
645480
645575
645674
645772
645869
645970
646072
646170
646266
646361
646450
646540
646639
646740
646841
646941
647042
647140
647240
647340
647440
647535
647624
647712
647801
647904
648015
648120
648223
648326
648425
648519
648617
648725
648828
648933
649047
649153
649254
649354
649448
649539
649628
649726
649831
649936
650034
650130
650225
650318
650412
650504
650593
650682
650769
650855
650942
651028
651113
651198
651282
651366
651451
651536
651620
651704
651787
651873
651957
652040
652122
652204
652286
652367
652451
652538
652625
652711
652795
652885
652977
653069
653161
653248
653334
653421
653509
653595
653679
653763
653846
653929
654013
654096
654180
654265
654354
654447
654540
654630
654719
654811
654906
654999
655100
655202
655302
655400
655494
655587
655681
655778
655874
655971
656071
656169
656267
656361
656454
656546
656636
656725
656816
656907
656996
657085
657172
657258
657344
657430
657516
657603
657690
657777
657863
657948
658036
658127
658218
658309
658397
658487
658575
658664
658754
658843
658931
659019
659106
659194
659280
659364
659449
659533
659616
659700
659783
659867
659950
660032
660114
660196
660278
660360
660441
660523
660605
660687
660770
660855
660940
661028
661114
661200
661288
661375
661462
661550
661636
661724
661811
661899
661988
662075
662163
662251
662344
662444
662545
662643
662745
662848
662944
663031
663119
663207
663293
663384
663476
663568
663661
663758
663857
663956
664056
664154
664245
664335
664424
664514
664604
664695
664788
664878
664969
665060
665152
665246
665342
665450
665556
665655
665752
665851
665952
666047
666139
666228
666318
666411
666504
666593
666687
666781
666873
666962
667050
667137
667222
667308
667394
667480
667566
667650
667735
667822
667914
668013
668110
668202
668292
668384
668474
668563
668649
668737
668823
668909
668998
669086
669173
669260
669352
669446
669542
669631
669718
669806
669893
669978
670063
670151
670239
670329
670418
670507
670599
670692
670782
670871
670963
671052
671142
671231
671323
671415
671505
671596
671691
671781
671868
671955
672040
672124
672208
672292
672376
672459
672542
672626
672709
672795
672887
672987
673094
673202
673309
673411
673504
673592
673683
673776
673869
673964
674059
674151
674248
674347
674445
674539
674638
674737
674835
674939
675041
675142
675247
675352
675455
675557
675656
675760
675872
675975
676070
676162
676257
676357
676455
676549
676642
676733
676822
676911
676999
677091
677189
677288
677395
677499
677602
677708
677815
677924
678038
678154
678267
678375
678480
678588
678702
678812
678923
679035
679148
679259
679374
679490
679595
679694
679789
679891
680001
680105
680213
680325
680449
680577
680702
680830
680961
681083
681185
681281
681374
681467
681560
681653
681746
681842
681937
682032
682126
682220
682335
682448
682564
682684
682810
682929
683059
683179
683300
683425
683534
683650
683765
683893
684019
684136
684251
684359
684458
684552
684649
684766
684896
685021
685151
685263
685373
685490
685617
685748
685871
686001
686117
686236
686355
686482
686602
686714
686841
686977
687098
687233
687360
687487
687624
687743
687870
687990
688111
688246
688391
688517
688663
688780
688887
688984
689084
689185
689286
689382
689478
689572
689666
689759
689853
689956
690077
690191
690299
690404
690505
690610
690728
690836
690939
691042
691146
691257
691371
691477
691582
691701
691818
691927
692034
692149
692262
692367
692471
692568
692664
692757
692854
692955
693052
693147
693238
693328
693415
693501
693588
693679
693776
693873
693969
694070
694175
694290
694401
694510
694618
694722
694826
694923
695015
695107
695202
695308
695420
695528
695629
695730
695824
695917
696008
696097
696183
696270
696355
696440
696525
696610
696694
696778
696862
696947
697031
697115
697201
697289
697376
697462
697548
697634
697721
697808
697898
697990
698082
698177
698277
698370
698461
698550
698638
698724
698809
698895
698979
699062
699146
699229
699314
699399
699485
699570
699655
699739
699822
699904
699989
700081
700175
700280
700379
700475
700576
700677
700777
700871
700967
701061
701161
701266
701368
701470
701576
701681
701784
701882
701981
702081
702180
702280
702381
702486
702590
702695
702805
702917
703025
703136
703247
703354
703460
703563
703660
703751
703842
703932
704020
704110
704198
704285
704372
704457
704544
704633
704726
704822
704926
705026
705120
705210
705299
705391
705488
705589
705701
705811
705917
706020
706124
706227
706325
706420
706516
706624
706731
706841
706951
707059
707177
707288
707392
707489
707589
707705
707823
707938
708049
708158
708266
708369
708471
708581
708691
708803
708909
709011
709112
709210
709309
709408
709506
709602
709698
709792
709882
709971
710060
710147
710232
710316
710400
710483
710566
710648
710730
710812
710894
710975
711056
711137
711218
711299
711381
711463
711546
711630
711712
711794
711875
711958
712039
712121
712202
712284
712365
712446
712529
712615
712701
712790
712884
712977
713066
713151
713238
713323
713410
713499
713589
713678
713770
713873
713979
714087
714192
714307
714408
714500
714591
714684
714782
714881
714983
715085
715192
715299
715406
715512
715616
715722
715830
715939
716045
716151
716258
716366
716474
716585
716692
716798
716905
717005
717102
717199
717305
717414
717528
717641
717748
717859
717977
718085
718204
718314
718413
718505
718596
718685
718775
718864
718953
719052
719165
719279
719396
719511
719626
719743
719856
719968
720085
720212
720322
720429
720535
720651
720772
720884
720985
721081
721188
721299
721410
721517
721634
721750
721866
721982
722107
722231
722358
722473
722582
722702
722826
722961
723101
723218
723346
723484
723618
723734
723839
723939
724035
724131
724238
724356
724486
724605
724726
724838
724957
725083
725212
725326
725432
725534
725632
725730
725833
725956
726086
726214
726341
726464
726583
726701
726826
726954
727074
727197
727326
727444
727558
727674
727799
727919
729017
729117
729213
729314
729427
729545
729661
729774
729890
730004
730120
730228
730340
730453
730567
730679
730786
730897
731016
731129
731237
731340
731447
731556
731671
731784
731899
732008
732113
732215
732311
732402
732492
732582
732672
732761
732849
732937
733025
733112
733203
733301
733409
733516
733615
733713
733821
733927
734034
734141
734244
734340
734436
734539
734644
734755
734866
734974
735080
735187
735298
735421
735550
735677
735815
735947
736069
736185
736294
736401
736506
736611
736715
736823
736929
737032
737136
737241
737359
737475
737594
737729
737854
737981
738104
738216
738328
738435
738537
738636
738735
738832
738933
739052
739169
739281
739388
739497
739620
739745
739871
739990
740107
740222
740333
740446
740560
740681
740809
740942
741075
741215
741338
741465
741593
741716
741833
741963
742080
742199
742321
742445
742568
742698
742824
742946
743070
743189
743308
743427
743546
743662
743773
743886
744010
744135
744262
744391
744512
744633
744761
744890
745016
745133
745250
745372
745494
745630
745762
745889
746027
746164
746297
746426
746555
746668
746773
746882
746998
747113
747238
747363
747493
747622
747750
747879
748010
748133
748257
748382
748518
748663
748789
748907
749023
749145
749263
749372
749476
749581
749685
749800
749910
750019
750134
750252
750367
750480
750594
750704
750810
750914
751016
751113
751211
751314
751414
751511
751606
751701
751793
751887
751984
752080
752184
752302
752417
752530
752639
752750
752866
752979
753089
753202
753312
753415
753516
753625
753729
753831
753935
754034
754138
754240
754347
754462
754582
754701
754824
754940
755056
755169
755285
755404
755521
755635
755747
755854
755968
756082
756206
756324
756440
756555
756679
756807
756920
757027
757130
757246
757369
757486
757602
757720
757835
757956
758076
758199
758323
758436
758551
758675
758792
758906
759017
759131
759251
759381
759505
759625
759745
759866
759990
760121
760249
760373
760499
760621
760746
760875
761008
761125
761234
761357
761491
761623
761755
761865
761980
762098
762219
762337
762461
762597
762718
762842
762972
763107
763231
763350
763464
763579
763698
763819
763937
764054
764175
764289
764399
764504
764623
764750
764882
764999
765114
765241
765360
765472
765583
765715
765838
765971
766086
766203
766316
766427
766532
766632
766732
766839
766972
767094
767203
767318
767434
767547
767663
767783
767902
768015
768145
768269
768387
768495
768601
768700
768800
768900
768999
769097
769193
769291
769386
769482
769577
769670
769763
769861
769956
770050
770141
770231
770321
770412
770502
770591
770679
770766
770853
770942
771035
771130
771229
771343
771453
771555
771647
771739
771836
771935
772032
772124
772214
772303
772392
772483
772572
772661
772751
772841
772933
773023
773113
773205
773298
773390
773482
773574
773678
773778
773874
773974
774081
774184
774288
774390
774493
774602
774712
774817
774915
775010
775104
775197
775290
775387
775491
775590
775688
775791
775888
775989
776090
776192
776294
776390
776484
776577
776674
776780
776879
776988
777106
777224
777333
777433
777531
777638
777751
777867
777987
778093
778205
778329
778448
778555
778664
778768
778872
778989
779097
779208
779325
779435
779550
779676
779800
779911
780038
780167
780320
780439
780553
780675
780785
780903
781037
781152
781289
781410
781527
781647
781785
781896
782006
782119
782236
782360
782500
782622
782746
782856
782971
783097
783214
783323
783424
783525
783625
783728
783831
783932
784033
784162
784280
784386
784491
784592
784688
784787
784892
784991
785089
785183
785277
785370
785462
785556
785656
785770
785879
785990
786108
786219
786334
786453
786576
786698
786807
786908
787016
787138
787258
787373
787488
787609
787725
787835
787944
788058
788169
788277
788376
788482
788587
788703
788816
788927
789034
789143
789243
789344
789451
789549
789645
789740
789834
789926
790018
790118
790222
790330
790435
790535
790646
790757
790873
790988
791105
791223
791336
791447
791554
791662
791767
791874
791987
792099
792208
792315
792417
792517
792619
792729
792842
792957
793071
793183
793291
793399
793510
793620
793729
793838
793952
794065
794173
794281
794389
794498
794613
794726
794833
794934
795032
795130
795227
795323
795419
795514
795608
795703
795796
795890
795983
796075
796167
796258
796351
796448
796560
796676
796784
796885
796981
797080
797191
797300
797404
797506
797613
797715
797816
797914
798011
798121
798231
798337
798440
798538
798642
798754
798859
798962
799063
799162
799262
799367
799484
799608
799732
799849
799957
800070
800186
800296
800409
800517
800620
800721
800820
800915
801017
801126
801230
801343
801463
801586
801700
801823
801943
802071
802189
802311
802446
802571
802698
802825
802961
803087
803205
803327
803435
803541
803651
803759
803873
803987
804097
804203
804312
804421
804526
804631
804738
804841
804939
805035
805137
805251
805372
805495
805621
805747
805875
806024
806176
806284
806383
806482
806582
806682
806795
806922
807052
807176
807294
807404
807506
807609
807710
807810
807907
808010
808116
808219
808317
808426
808547
808667
808789
808906
809035
809164
809274
809377
809473
809570
809667
809765
809877
809996
810123
810244
810367
810496
810634
810748
810854
810956
811056
811156
811254
811353
811454
811551
811652
811762
811881
812000
812126
812257
812387
812520
812641
812773
812900
813009
813115
813219
813320
813447
813581
813698
813809
813923
814050
814168
814289
814404
814517
814626
814741
814869
814992
815106
815219
815332
815452
815573
815694
815822
815942
816058
816195
816312
816421
816529
816633
816736
816839
816940
817040
817140
817241
817341
817443
817546
817667
817785
817906
818028
818154
818278
818400
818522
818645
818778
818910
819051
819194
819338
819481
819638
819762
819877
820049
820188
820311
820436
820565
820681
820807
820927
821043
821153
821265
821398
821535
821665
821799
821935
822049
822160
822273
822387
822502
822616
822728
822836
822972
823110
823255
823400
823531
823693
823811
823923
824046
824162
824277
824394
824507
824613
824725
824837
824947
825057
825166
825273
825383
825490
825606
825728
825861
825995
826128
826250
826368
826486
826596
826712
826838
826957
827070
827186
827306
827432
827566
827685
827809
827943
828082
828217
828338
828450
828564
828678
828786
828894
829007
829126
829250
829374
829506
829640
829781
829922
830051
830190
830335
830452
830563
830706
830847
830982
831104
831217
831334
831455
831570
831689
831813
831947
832075
832206
832343
832468
832594
832717
832841
832965
833088
833222
833360
833487
833612
833744
833870
834000
834137
834275
834410
834539
834688
834807
834924
835030
835135
835240
835350
835465
835586
835712
835844
835982
836124
836254
836404
836538
836685
836831
836946
837062
837191
837326
837449
837563
837687
837803
837940
838080
838222
838339
838458
838580
838705
838843
838975
839097
839215
839351
839493
839624
839758
839890
840037
840177
840327
840454
840601
840726
840842
840960
841103
841234
841388
841513
841638
841756
841877
841999
842122
842245
842365
842502
842633
842771
842894
843018
843155
843289
843412
843531
843653
843768
843884
844001
844110
844216
844326
844456
844586
844715
844857
844983
845108
845260
845400
845539
845669
845794
845911
846024
846130
846250
846381
846500
846619
846750
846903
847027
847143
847280
847416
847553
847695
847817
847932
848043
848164
848290
848408
848524
848647
848772
848901
849040
849175
849301
849421
849540
849659
849774
849901
850042
850174
850289
850405
850532
850648
850761
850873
850977
851077
851180
851297
851418
851560
851688
851821
851951
852088
852215
852340
852463
852588
852705
852822
852956
853076
853184
853283
853382
853478
853579
853694
853811
853942
854068
854191
854323
854454
854585
854718
854825
854946
855083
855214
855336
855445
855559
855673
855801
855918
856044
856179
856304
856422
856563
856700
856827
856965
857098
857216
857339
857470
857605
857738
857877
858018
858158
858290
858435
858565
858689
858809
858936
859048
859169
859313
859439
859568
859690
859814
859929
860044
860160
860285
860428
860564
860685
860838
860974
861116
861251
861398
861515
861628
861741
861858
861994
862129
862253
862382
862521
862656
862792
862919
863039
863171
863309
863444
863578
863716
863843
863994
864117
864231
864351
864465
864577
864682
864787
864895
865020
865144
865256
865363
865476
865597
865717
865844
865980
866101
866231
866341
866466
866584
866704
866832
866962
867083
867198
867313
867428
867554
867688
867816
867955
868098
868245
868377
868500
868614
868728
868845
868968
869089
869212
869329
869441
869550
869676
869815
869951
870078
870210
870328
870449
870561
870669
870773
870896
871016
871135
871251
871379
871499
871612
871737
871849
871964
872098
872232
872365
872478
872582
872680
872778
872875
872971
873071
873171
873272
873376
873500
873612
873721
873822
873931
874032
874128
874222
874316
874410
874503
874593
874685
874776
874866
874957
875049
875141
875234
875327
875419
875507
875597
875689
875778
875866
875955
876043
876130
876220
876309
876399
876487
876575
876664
876751
876840
876929
877017
877106
877203
877305
877402
877500
877593
877688
877784
877877
877968
878061
878156
878262
878363
878464
878568
878668
878770
878870
878975
879084
879186
879284
879379
879479
879573
879675
879777
879875
879982
880084
880178
880281
880382
880477
880569
880663
880757
880853
880951
881052
881152
881246
881341
881442
881551
881655
881752
881850
881944
882039
882130
882221
882315
882408
882501
882596
882689
882783
882878
882969
883059
883152
883243
883336
883429
883524
883615
883708
883798
883887
883976
884063
884152
884240
884328
884417
884506
884594
884684
884776
884871
884967
885059
885151
885243
885338
885433
885534
885632
885730
885839
885941
886047
886158
886270
886372
886479
886589
886698
886811
886921
887033
887138
887251
887360
887463
887562
887658
887752
887847
887942
888038
888131
888224
888320
888431
888546
888655
888768
888893
889020
889133
889269
889401
889514
889625
889740
889866
889993
890131
890251
890387
890502
890610
890713
890816
890919
891032
891143
891254
891372
891487
891598
891712
891831
891947
892383
892482
892579
892677
892773
892870
892966
893062
893252
893350
893449
893547
893829
893920
894013
894194
894284
894373
894465
894558
894650
894743
894837
894934
895035
895134
895247
895347
895463
895581
895695
895803
895902
896003
896105
896218
896341
896448
896558
896671
896782
896893
897023
897153
897264
897374
897492
897609
897715
897824
897944
898056
898167
898274
898380
898493
898617
898733
898847
898966
899082
899208
899320
899436
899547
899651
899759
899867
899972
900074
900174
900278
900392
900503
900619
900733
900847
900963
901094
901228
901347
901466
901591
901702
901808
901909
902005
902103
902201
902298
902393
902488
902584
902681
902812
902934
903048
903156
903260
903360
903456
903553
903651
903747
903842
903937
904031
904125
904225
904338
904445
904546
904646
904760
904871
904991
905107
905220
905336
905462
905589
905721
905857
905972
906079
906191
906312
906432
906558
906684
906808
906924
907038
907143
907243
907343
907444
907545
907646
907746
907846
907944
908044
908144
908247
908350
908455
908558
908661
908778
908888
908996
909104
909221
909346
909466
909577
909681
909792
909908
910021
910128
910230
910332
910432
910534
910636
910737
910835
910942
911044
911158
911276
911391
911497
911617
911728
911838
911964
912080
912189
912305
912434
912562
912686
912810
912931
913043
913151
913254
913355
913457
913558
913658
913765
913883
913997
914106
914215
914321
914426
914534
914644
914745
914865
914975
915078
915174
915277
915377
915480
915578
915682
915786
915884
915984
916082
916180
916276
916378
916482
916584
916689
916800
916912
917026
917134
917238
917339
917436
917544
917648
917752
917853
917960
918063
918164
918268
918367
918464
918561
918655
918749
918846
918947
919049
919149
919261
919374
919480
919583
919686
919785
919890
920000
920110
920218
920338
920452
920569
920690
920805
920923
921032
921135
921232
921331
921426
921524
921622
921716
921813
921911
922008
922104
922202
922297
922407
922528
922636
922742
922849
922952
923056
923156
923258
923369
923473
923573
923673
923772
923870
923972
924075
924173
924274
924378
924481
924579
924690
924801
924902
925002
925102
925201
925299
925406
925506
925613
925720
925820
925929
926045
926155
926256
926359
926469
926572
926673
926786
926889
926989
927088
927185
927285
927395
927514
927621
927721
927818
927913
928008
928104
928200
928297
928393
928490
928592
928690
928794
928903
929015
929118
929218
929316
929411
929506
929600
929692
929786
929885
929980
930075
930169
930261
930354
930448
930541
930636
930734
930833
930933
931030
931126
931220
931312
931407
931507
931610
931708
931801
931896
931991
932083
932176
932272
932366
932467
932562
932656
932764
932877
932991
933113
933230
933349
933461
933576
933683
933789
933892
933988
934084
934180
934274
934369
934464
934557
934651
934745
934839
934941
935045
935149
935261
935366
935464
935560
935655
935747
935841
935936
936031
936125
936222
936317
936410
936503
936596
936686
936779
936871
936961
937054
937149
937244
937338
937436
937535
937636
937735
937836
937948
938052
938153
938267
938372
938472
938571
938666
938760
938854
938947
939038
939134
939232
939330
939442
939553
939655
939752
939849
939946
940045
940142
940235
940329
940422
940514
940607
940700
940793
940885
940981
941084
941183
941283
941398
941510
941611
941719
941823
941919
942014
942107
942200
942293
942385
942476
942568
942661
942752
942844
942943
943042
943137
943239
943338
943433
943526
943621
943719
943820
943917
944013
944106
944200
944295
944389
944494
944598
944696
944791
944886
944978
945072
945164
945257
945351
945448
945543
945638
945736
945837
945944
946043
946140
946234
946327
946421
946514
946606
946705
946804
946900
947012
947115
947214
947315
947411
947508
947603
947697
947792
947887
947981
948086
948199
948303
948400
948497
948593
948688
948782
948881
948977
949072
949166
949259
949352
949444
949536
949628
949721
949816
949915
950025
950135
950236
950333
950428
950521
950621
950729
950830
950924
951019
951113
951204
951297
951390
951482
951574
951665
951757
951849
951941
952033
952126
952218
952311
952406
952499
952592
952687
952783
952885
952984
953079
953183
953292
953398
953505
953607
953704
953801
953896
953990
954084
954178
954272
954366
954459
954551
954644
954737
954831
954926
955021
955113
955210
955327
955441
955554
955667
955780
955891
955994
956089
956188
956285
956383
956479
956572
956667
956761
956854
956948
957043
957136
957233
957333
957430
957526
957621
957714
957807
957900
957991
958083
958175
958265
958357
958450
958542
958635
958741
958854
958963
959068
959171
959270
959364
959459
959553
959646
959739
959831
959923
960016
960110
960203
960298
960392
960484
960577
960669
960761
960852
960943
961036
961126
961219
961310
961401
961492
961593
961705
961812
961913
962010
962104
962196
962287
962379
962471
962563
962658
962753
962854
962967
963074
963186
963296
963403
963511
963617
963716
963813
963909
964005
964104
964216
964327
964444
964572
964698
964809
964914
965013
965112
965303
965399
965496
965595
965692
965789
965892
965989
966088
966186
966378
966470
966744
966837
966929
967109
967200
967289
967378
967467
967554
967731
967993
968080
968170
968256
968436
968526
968617
968706
968793
968882
968970
969058
969145
969233
969323
969416
969510
969603
969698
969801
969903
970006
970105
970205
970304
970404
970501
970594
970686
970776
970868
970958
971048
971136
971227
971314
971403
971493
971576
971666
971754
971841
972017
972104
972192
972277
972363
972447
972795
972880
972968
973052
973138
973225
973309
973397
973484
973569
973656
973740
973826
973913
974001
974087
974173
974259
974348
974441
974541
974650
974760
974865
974968
975067
975170
975271
975370
975469
975565
975667
975770
975871
975969
976069
976169
976270
976364
976458
976548
976640
976732
976823
976914
977005
977096
977185
977276
977366
977453
977542
977630
977717
977805
977892
977981
978068
978157
978248
978341
978434
978525
978615
978705
978793
978881
978969
979056
979145
979234
979323
979411
979498
979586
979673
979759
979846
979933
980017
980103
980190
980275
980361
980447
980533
980617
980703
980789
980873
980959
981045
981129
981215
981301
981385
981470
981556
981641
981725
981811
981898
981985
982070
982158
982245
982331
982418
982504
982590
982677
982765
982853
982943
983034
983122
983211
983300
983387
983474
983562
983649
983735
983823
983909
983997
984084
984170
984257
984344
984430
984516
984604
984689
984777
984865
984952
985038
985125
985209
985296
985383
985469
985555
985648
985747
985845
985939
986033
986135
986236
986331
986425
986517
986607
986698
986788
986878
986968
987057
987146
987235
987324
987411
987500
987589
987676
987765
987855
987944
988032
988121
988211
988301
988390
988479
988568
988656
988745
988834
988921
989010
989098
989187
989275
989365
989456
989545
989634
989725
989816
989906
990000
990098
990194
990287
990383
990478
990571
990664
990756
990846
990938
991029
991118
991209
991300
991390
991480
991574
991668
991762
991860
991960
992063
992164
992267
992367
992463
992561
992660
992756
992857
992962
993064
993170
993278
993379
993482
993587
993687
993789
993897
994002
994108
994222
994330
994436
994556
994673
994786
994903
995016
995131
995254
995374
995498
995617
995742
995872
995989
996113
996235
996354
996478
996590
996701
996808
996915
997027
997135
997250
997379
997495
997619
997742
997867
997999
998115
998235
998353
998473
998602
998718
998832
998940
999044
999150
999252
999356
999462
999565
999669
999773
999873
999975
1000074
1000174
1000271
1000367
1000462
1000556
1000649
1000740
1000832
1000922
1001011
1001101
1001189
1001277
1001366
1001455
1001542
1001631
1001724
1001814
1001906
1002002
1002096
1002188
1002280
1002368
1002458
1002547
1002635
1002723
1002812
1002900
1002988
1003077
1003166
1003254
1003344
1003439
1003533
1003628
1003734
1003836
1003940
1004060
1004168
1004276
1004378
1004475
1004577
1004677
1004775
1004875
1004972
1005067
1005163
1005257
1005352
1005447
1005542
1005637
1005738
1005846
1005949
1006059
1006177
1006287
1006400
1006512
1006626
1006745
1006856
1006965
1007076
1007182
1007290
1007392
1007495
1007597
1007697
1007799
1007903
1008005
1008110
1008225
1008335
1008453
1008572
1008690
1008814
1008931
1009053
1009174
1009290
1009413
1009529
1009646
1009759
1009869
1009980
1010087
1010200
1010319
1010434
1010561
1010678
1010796
1010909
1011020
1011147
1011265
1011386
1011498
1011606
1011711
1011816
1011917
1012020
1012121
1012220
1012319
1012418
1012516
1012615
1012713
1012807
1012902
1012995
1013086
1013176
1013265
1013355
1013444
1013532
1013621
1013708
1013796
1013886
1013978
1014069
1014163
1014259
1014355
1014462
1014566
1014671
1014770
1014864
1014958
1015051
1015145
1015240
1015333
1015424
1015516
1015607
1015700
1015792
1015885
1015985
1016082
1016181
1016280
1016377
1016473
1016568
1016666
1016760
1016852
1016944
1017034
1017124
1017212
1017301
1017389
1017477
1017566
1017654
1017742
1017830
1017918
1018005
1018093
1018182
1018271
1018361
1018450
1018540
1018628
1018718
1018813
1018911
1019011
1019118
1019223
1019326
1019429
1019543
1019658
1019763
1019867
1019968
1020066
1020159
1020253
1020347
1020439
1020532
1020625
1020719
1020813
1020906
1021000
1021095
1021190
1021287
1021385
1021481
1021579
1021676
1021773
1021872
1021971
1022069
1022168
1022270
1022374
1022488
1022604
1022715
1022825
1022944
1023067
1023193
1023317
1023436
1023548
1023657
1023761
1023864
1023966
1024069
1024184
1024308
1024425
1024544
1024670
1024786
1024912
1025030
1025159
1025278
1025403
1025522
1025654
1025775
1025908
1026034
1026165
1026294
1026433
1026562
1026690
1026818
1026946
1027072
1027193
1027321
1027444
1027572
1027696
1027825
1027943
1028071
1028201
1028337
1028473
1028599
1028719
1028838
1028977
1029104
1029249
1029397
1029528
1029651
1029767
1029877
1029990
1030113
1030259
1030390
1030534
1030668
1030817
1030972
1031099
1031241
1031366
1031512
1031634
1031749
1031872
1032012
1032148
1032266
1032403
1032539
1032658
1032796
1032936
1033061
1033201
1033344
1033470
1033587
1033703
1033828
1033967
1034099
1034236
1034361
1034503
1034637
1034779
1034929
1035055
1035192
1035328
1035452
1035571
1035682
1035794
1035904
1036014
1036121
1036230
1036339
1036448
1036556
1036665
1036780
1036901
1037018
1037131
1037241
1037349
1037459
1037567
1037678
1037784
1037886
1037986
1038084
1038180
1038275
1038368
1038460
1038552
1038643
1038733
1038823
1038913
1039002
1039089
1039177
1039265
1039352
1039438
1039523
1039609
1039695
1039781
1039865
1039950
1040035
1040119
1040203
1040287
1040372
1040456
1040540
1040624
1040709
1040793
1040878
1040964
1041056
1041156
1041264
1041367
1041472
1041583
1041689
1041800
1041910
1042012
1042107
1042205
1042304
1042404
1042507
1042610
1042716
1042826
1042956
1043086
1043213
1043356
1043491
1043618
1043768
1043927
1044038
1044134
1044226
1044320
1044422
1044537
1044655
1044790
1044934
1045080
1045206
1045313
1045414
1045509
1045604
1045700
1045798
1045896
1045996
1046098
1046199
1046299
1046398
1046498
1046608
1046735
1046857
1046979
1047091
1047210
1047329
1047441
1047550
1047661
1047780
1047905
1048025
1048148
1048269
1048386
1048496
1048603
1048717
1048850
1048971
1049088
1049201
1049316
1049431
1049544
1049658
1049775
1049889
1050001
1050121
1050246
1050371
1050494
1050612
1050736
1050859
1050976
1051092
1051206
1051316
1051420
1051521
1051626
1051747
1051872
1051988
1052097
1052200
1052299
1052398
1052496
1052594
1052691
1052788
1052885
1052981
1053076
1053172
1053266
1053360
1053454
1053548
1053641
1053735
1053827
1053920
1054012
1054103
1054194
1054285
1054376
1054466
1054556
1054646
1054736
1054825
1054915
1055004
1055093
1055183
1055272
1055361
1055450
1055539
1055628
1055718
1055807
1055901
1056000
1056117
1056233
1056348
1056465
1056585
1056700
1056802
1056897
1056990
1057084
1057178
1057271
1057367
1057464
1057561
1057656
1057754
1057850
1057945
1058042
1058139
1058236
1058331
1058427
1058523
1058619
1058714
1058811
1058911
1059021
1059127
1059226
1059325
1059423
1059520
1059616
1059713
1059809
1059906
1060006
1060105
1060207
1060321
1060432
1060542
1060655
1060768
1060875
1060981
1061099
1061217
1061338
1061457
1061571
1061693
1061819
1061933
1062046
1062170
1062287
1062398
1062521
1062648
1062773
1062891
1063010
1063124
1063233
1063342
1063450
1063557
1063671
1063783
1063892
1064002
1064113
1064231
1064350
1064773
1064868
1064965
1065059
1065153
1065246
1065338
1065430
1065521
1065611
1065701
1065791
1065968
1066055
1066142
1066315
1066402
1067104
1067195
1067285
1067373
1067462
1067551
1067639
1067728
1067816
1067904
1067991
1068079
1068166
1068254
1068341
1068429
1068516
1068604
1068690
1068778
1068867
1068959
1069054
1069153
1069250
1069348
1069440
1069536
1069631
1069725
1069815
1069902
1069992
1070081
1070167
1070255
1070343
1070430
1070516
1070603
1070777
1070862
1070949
1071034
1071120
1071378
1071464
1071550
1071634
1071720
1071805
1071891
1071976
1072061
1072145
1072231
1072315
1072399
1072485
1072569
1072654
1072739
1072823
1072908
1072993
1073078
1073163
1073247
1073333
1073418
1073505
1073590
1073674
1073760
1073847
1073934
1074020
1074106
1074191
1074276
1074362
1074447
1074532
1074617
1074702
1074787
1074872
1074957
1075042
1075128
1075213
1075298
1075384
1075469
1075554
1075640
1075724
1075810
1075896
1075982
1076067
1076152
1076239
1076324
1076409
1076496
1076583
1076668
1076755
1076845
1076934
1077021
1077110
1077200
1077289
1077377
1077469
1077559
1077648
1077740
1077833
1077923
1078012
1078102
1078191
1078281
1078370
1078458
1078548
1078637
1078725
1078814
1078906
1078997
1079087
1079184
1079290
1079391
1079489
1079594
1079709
1079814
1079912
1080008
1080103
1080195
1080288
1080382
1080475
1080568
1080663
1080757
1080849
1080943
1081038
1081131
1081225
1081323
1081424
1081523
1081632
1081747
1081859
1081965
1082078
1082191
1082300
1082406
1082524
1082644
1082764
1082879
1082989
1083109
1083234
1083352
1083463
1083573
1083678
1083785
1083890
1083994
1084099
1084202
1084307
1084416
1084525
1084631
1084752
1084873
1084986
1085103
1085228
1085348
1085462
1085587
1085712
1085831
1085959
1086079
1086194
1086307
1086419
1086528
1086636
1086745
1086851
1086959
1087064
1087172
1087281
1087388
1087502
1087622
1087743
1087873
1087995
1088119
1088254
1088382
1088517
1088657
1088782
1088922
1089066
1089190
1089317
1089438
1089553
1089671
1089783
1089898
1090020
1090139
1090267
1090390
1090518
1090650
1090776
1090913
1091041
1091178
1091309
1091439
1091575
1091698
1091821
1091943
1092067
1092186
1092307
1092431
1092552
1092675
1092792
1092920
1093046
1093172
1093304
1093431
1093568
1093696
1093825
1093951
1094075
1094212
1094337
1094465
1094597
1094724
1094859
1094984
1095115
1095254
1095381
1095508
1095637
1095770
1095902
1096045
1096176
1096306
1096431
1096560
1096681
1096804
1096923
1097044
1097159
1097282
1097412
1097540
1097682
1097814
1097954
1098081
1098218
1098348
1098484
1098611
1098747
1098887
1099018
1099166
1099297
1099443
1099579
1099724
1099859
1099994
1100129
1100257
1100407
1100559
1100692
1100825
1100967
1101111
1101246
1101378
1101502
1101623
1101740
1101861
1102006
1102156
1102298
1102447
1102600
1102746
1102869
1103019
1103161
1103287
1103399
1103512
1103628
1103738
1103847
1103979
1104102
1104225
1104350
1104479
1104611
1104743
1104868
1104990
1105113
1105251
1105393
1105519
1105650
1105775
1105894
1106008
1106121
1106229
1106340
1106450
1106576
1106710
1106850
1106989
1107116
1107260
1107398
1107520
1107667
1107817
1107943
1108076
1108217
1108338
1108470
1108595
1108715
1108835
1108949
1109073
1109188
1109308
1109420
1109539
1109666
1109785
1109906
1110023
1110136
1110249
1110359
1110478
1110604
1110725
1110856
1110994
1111124
1111247
1111366
1111482
1111597
1111710
1111821
1111932
1112040
1112148
1112255
1112359
1112464
1112566
1112669
1112770
1112869
1112971
1113077
1113187
1113309
1113439
1113572
1113693
1113820
1113951
1114069
1114186
1114327
1114455
1114570
1114695
1114822
1114937
1115057
1115190
1115316
1115434
1115563
1115686
1115805
1115943
1116064
1116189
1116321
1116443
1116562
1116673
1116781
1116889
1116995
1117101
1117205
1117309
1117412
1117516
1117619
1117719
1117822
1117924
1118023
1118124
1118225
1118324
1118425
1118556
1118684
1118809
1118931
1119066
1119202
1119344
1119480
1119599
1119736
1119885
1120019
1120142
1120251
1120359
1120464
1120568
1120670
1120781
1120928
1121057
1121177
1121312
1121441
1121563
1121686
1121805
1121942
1122065
1122201
1122329
1122454
1122590
1122712
1122841
1122976
1123103
1123243
1123370
1123493
1123607
1123726
1123864
1124001
1124125
1124267
1124403
1124538
1124682
1124811
1124955
1125098
1125246
1125389
1125520
1125647
1125780
1125915
1126053
1126188
1126312
1126432
1126550
1126671
1126805
1126946
1127073
1127208
1127330
1127466
1127613
1127755
1127886
1128009
1128142
1128288
1128442
1128575
1128697
1128818
1128931
1129042
1129151
1129258
1129364
1129468
1129570
1129671
1129774
1129878
1129984
1130087
1130189
1130295
1130403
1130511
1130619
1130737
1130849
1130953
1131051
1131147
1131242
1131336
1131429
1131522
1131615
1131708
1131799
1131891
1131983
1132075
1132165
1132255
1132345
1132434
1132523
1132611
1132699
1132788
1132875
1132964
1133052
1133139
1133227
1133314
1133401
1133490
1133579
1133669
1133764
1133865
1133968
1134084
1134199
1134310
1134426
1134548
1134674
1134807
1134941
1135065
1135195
1135320
1135452
1135571
1135707
1135829
1135970
1136111
1136239
1136401
1136521
1136660
1136810
1136930
1137056
1137226
1137387
1137517
1137634
1137764
1137883
1138008
1138128
1138240
1138356
1138479
1138596
1138712
1138833
1138953
1139070
1139186
1139323
1139449
1139566
1139694
1139832
1139966
1140090
1140229
1140366
1140495
1140620
1140745
1140863
1140982
1141109
1141230
1141353
1141485
1141606
1141735
1141876
1142004
1142141
1142287
1142434
1142565
1142712
1142837
1142963
1143088
1143205
1143326
1143441
1143574
1143706
1143828
1143962
1144089
1144220
1144354
1144478
1144601
1144720
1144843
1144963
1145083
1145215
1145339
1145474
1145618
1145754
1145880
1146019
1146144
1146270
1146388
1146508
1146622
1146739
1146853
1146968
1147081
1147194
1147310
1147421
1147555
1147694
1147822
1147953
1148094
1148232
1148359
1148483
1148597
1148710
1148822
1148933
1149044
1149152
1149262
1149369
1149478
1149585
1149692
1149799
1149902
1150007
1150111
1150215
1150321
1150456
1150588
1150722
1150852
1150977
1151114
1151255
1151396
1151515
1151633
1151749
1151858
1151962
1152071
1152194
1152308
1152416
1152527
1152633
1152744
1152858
1152966
1153075
1153183
1153289
1153419
1153544
1153663
1153790
1153911
1154038
1154175
1154304
1154439
1154579
1154708
1154854
1154991
1155118
1155261
1155385
1155507
1155653
1155777
1155899
1156020
1156135
1156275
1156398
1156525
1156643
1156761
1156872
1156996
1157118
1157250
1157376
1157505
1157624
1157759
1157882
1158024
1158148
1158288
1158431
1158565
1158718
1158856
1159013
1159141
1159273
1159396
1159533
1159666
1159789
1159929
1160052
1160175
1160304
1160422
1160544
1160664
1160782
1160898
1161009
1161132
1161250
1161378
1161512
1161636
1161763
1161882
1162009
1162134
1162262
1162390
1162514
1162650
1162780
1162913
1163051
1163176
1163316
1163452
1163578
1163716
1163843
1163974
1164099
1164222
1164353
1164477
1164616
1164743
1164871
1164991
1165113
1165229
1165352
1165469
1165593
1165717
1165840
1165974
1166099
1166238
1166368
1166500
1166642
1166770
1166913
1167050
1167171
1167296
1167423
1167548
1167664
1167780
1167891
1168003
1168114
1168222
1168331
1168435
1168543
1168650
1168755
1168889
1169011
1169144
1169279
1169408
1169550
1169685
1169831
1169980
1170102
1170229
1170361
1170525
1170670
1170793
1170903
1171014
1171127
1171235
1171344
1171455
1171566
1171674
1171792
1171919
1172036
1172153
1172275
1172393
1172517
1172651
1172778
1172906
1173035
1173154
1173277
1173404
1173524
1173654
1173780
1173900
1174022
1174142
1174269
1174400
1174524
1174655
1174777
1174902
1175027
1175151
1175292
1175416
1175544
1175669
1175800
1175934
1176060
1176197
1176328
1176459
1176592
1176721
1176867
1176998
1177130
1177253
1177387
1177522
1177645
1177775
1177900
1178036
1178163
1178289
1178421
1178545
1178684
1178812
1178945
1179092
1179219
1179360
1179488
1179625
1179750
1179883
1180018
1180155
1180291
1180418
1180562
1180688
1180827
1180959
1181087
1181215
1181337
1181474
1181602
1181728
1181854
1181978
1182119
1182247
1182382
1182510
1182649
1182777
1182922
1183054
1183205
1183332
1183458
1183578
1183709
1183836
1183984
1184125
1184261
1184406
1184530
1184680
1184810
1184950
1185090
1185224
1185361
1185486
1185628
1185754
1185886
1186012
1186137
1186268
1186391
1186521
1186648
1186779
1186912
1187041
1187177
1187303
1187429
1187550
1187678
1187801
1187933
1188059
1188194
1188324
1188457
1188586
1188714
1188846
1188969
1189096
1189221
1189349
1189478
1189612
1189759
1189892
1190043
1190177
1190322
1190459
1190596
1190736
1190870
1191008
1191133
1191275
1191405
1191542
1191672
1191801
1191934
1192062
1192197
1192324
1192457
1192581
1192720
1192848
1192985
1193118
1193248
1193382
1193510
1193638
1193764
1193894
1194022
1194169
1194298
1194444
1194576
1194718
1194848
1194992
1195122
1195251
1195372
1195495
1195612
1195733
1195849
1195965
1196082
1196218
1196343
1196481
1196609
1196753
1196880
1197028
1197157
1197310
1197441
1197582
1197703
1197835
1197978
1198108
1198249
1198380
1198519
1198639
1198799
1198930
1199078
1199203
1199320
1199429
1199533
1199639
1199742
1199848
1199953
1200058
1200166
1200272
1200383
1200522
1200648
1200787
1200916
1201039
1201152
1201263
1201374
1201487
1201625
1201748
1201888
1202017
1202161
1202297
1202444
1202571
1202701
1202833
1202963
1203091
1203213
1203351
1203476
1203609
1203734
1203856
1203977
1204095
1204220
1204343
1204469
1204601
1204729
1204861
1204985
1205121
1205248
1205386
1205511
1205640
1205770
1205903
1206034
1206162
1206301
1206431
1206565
1206689
1206821
1206947
1207082
1207214
1207347
1207490
1207620
1207757
1207883
1208021
1208151
1208276
1208400
1208521
1208655
1208779
1208906
1209034
1209159
1209303
1209430
1209574
1209703
1209834
1209972
1210106
1210238
1210374
1210516
1210651
1210794
1210918
1211065
1211190
1211322
1211442
1211562
1211675
1211804
1211927
1212061
1212188
1212325
1212453
1212596
1212723
1212856
1212990
1213134
1213285
1213423
1213568
1213702
1213828
1213953
1214074
1214210
1214335
1214474
1214599
1214742
1214876
1215007
1215146
1215279
1215421
1215551
1215677
1215799
1215924
1216044
1216187
1216318
1216455
1216594
1216730
1216879
1217010
1217143
1217270
1217406
1217530
1217672
1217801
1217933
1218064
1218196
1218319
1218442
1218559
1218677
1218789
1218904
1219016
1219132
1219272
1219410
1219545
1219688
1219821
1219963
1220082
1220204
1220342
1220477
1220632
1220766
1220926
1221070
1221198
1221358
1221480
1221615
1221742
1221865
1221981
1222092
1222209
1222320
1222436
1222551
1222663
1222804
1222927
1223054
1223176
1223308
1223437
1223563
1223680
1223800
1223927
1224059
1224184
1224309
1224435
1224570
1224699
1224835
1224973
1225108
1225226
1225353
1225472
1225592
1225710
1225834
1225962
1226085
1226224
1226352
1226491
1226619
1226758
1226895
1227030
1227172
1227304
1227448
1227572
1227709
1227839
1227969
1228092
1228215
1228339
1228461
1228584
1228708
1228843
1228968
1229114
1229245
1229380
1229507
1229644
1229772
1229909
1230033
1230168
1230296
1230445
1230575
1230699
1230824
1230961
1231098
1231232
1231381
1231518
1231663
1231799
1231929
1232063
1232195
1232351
1232482
1232615
1232749
1232875
1233007
1233129
1233253
1233375
1233506
1233643
1233768
1233905
1234030
1234168
1234296
1234439
1234570
1234699
1234827
1234950
1235077
1235198
1235329
1235461
1235591
1235731
1235862
1236010
1236140
1236290
1236425
1236575
1236714
1236862
1236997
1237129
1237252
1237376
1237512
1237641
1237783
1237918
1238068
1238202
1238364
1238499
1238660
1238797
1238932
1239069
1239205
1239344
1239471
1239619
1239742
1239874
1239999
1240129
1240268
1240393
1240534
1240659
1240799
1240929
1241054
1241183
1241309
1241456
1241585
1241730
1241855
1241987
1242113
1242236
1242369
1242492
1242636
1242762
1242912
1243041
1243185
1243315
1243455
1243587
1243726
1243863
1243992
1244131
1244260
1244400
1244526
1244661
1244785
1244926
1245062
1245194
1245320
1245444
1245595
1245721
1245859
1245986
1246129
1246255
1246385
1246511
1246638
1246769
1246894
1247027
1247155
1247306
1247435
1247581
1247707
1247852
1247980
1248125
1248255
1248387
1248509
1248640
1248772
1248902
1249024
1249157
1249291
1249424
1249564
1249709
1249850
1249999
1250141
1250276
1250415
1250540
1250681
1250811
1250965
1251087
1251234
1251358
1251506
1251629
1251750
1251865
1251979
1252096
1252211
1252338
1252459
1252590
1252715
1252853
1252984
1253119
1253258
1253392
1253525
1253648
1253788
1253919
1254073
1254203
1254351
1254483
1254610
1254742
1254866
1255014
1255141
1255272
1255395
1255518
1255650
1255775
1255915
1256041
1256181
1256307
1256436
1256558
1256697
1256827
1256963
1257099
1257251
1257389
1257546
1257687
1257857
1257999
1258165
1258303
1258475
1258602
1258747
1258872
1259002
1259135
1259261
1259404
1259531
1259672
1259803
1259946
1260079
1260215
1260358
1260486
1260624
1260756
1260894
1261019
1261159
1261285
1261420
1261546
1261687
1261823
1261952
1262084
1262213
1262359
1262493
1262640
1262769
1262911
1263041
1263185
1263314
1263446
1263584
1263715
1263853
1263982
1264127
1264256
1264409
1264545
1264686
1264820
1264953
1265095
1265225
1265352
1265473
1265612
1265739
1265873
1265998
1266134
1266269
1266399
1266535
1266666
1266811
1266939
1267081
1267209
1267344
1267476
1267610
1267754
1267889
1268035
1268165
1268295
1268418
1268564
1268693
1268826
1268962
1269102
1269250
1269384
1269538
1269668
1269824
1269953
1270089
1270212
1270338
1270459
1270607
1270734
1270884
1271015
1271140
1271263
1271376
1271490
1271604
1271716
1271823
1271931
1272037
1272143
1272248
1272356
1272492
1272627
1272753
1272873
1272981
1273086
1273190
1273291
1273393
1273495
1273595
1273700
1273831
1273948
1274054
1274157
1274257
1274357
1274457
1274556
1274653
1274751
1274849
1274946
1275042
1275139
1275238
1275337
1275437
1275540
1275644
1275756
1275871
1275981
1276088
1276201
1276313
1276421
1276526
1276640
1276759
1276874
1276981
1277088
1277200
1277305
1277420
1277536
1277651
1277772
1277893
1278010
1278139
1278266
1278383
1278502
1278631
1278760
1278876
1279010
1279136
1279259
1279380
1279502
1279620
1279734
1279858
1279979
1280096
1280231
1280359
1280479
1280617
1280745
1280867
1281002
1281125
1281261
1281384
1281506
1281627
1281746
1281864
1281983
1282101
1282220
1282337
1282454
1282570
1282681
1282795
1282908
1283017
1283128
1283238
1283347
1283470
1283598
1283726
1283857
1283988
1284118
1284259
1284400
1284523
1284639
1284750
1284859
1284971
1285084
1285195
1285316
1285430
1285543
1285651
1285758
1285864
1285969
1286074
1286179
1286282
1286386
1286489
1286591
1286692
1286793
1286896
1286995
1287095
1287193
1287291
1287387
1287485
1287582
1287678
1287774
1287870
1287964
1288059
1288154
1288248
1288343
1288438
1288532
1288626
1288720
1288813
1288907
1289001
1289095
1289190
1289287
1289384
1289490
1289614
1289730
1289843
1289965
1290089
1290207
1290326
1290436
1290536
1290637
1290740
1290844
1290958
1291090
1291212
1291336
1291471
1291595
1291734
1291874
1291991
1292126
1292257
1292383
1292525
1292646
1292778
1292905
1293021
1293161
1293288
1293410
1293539
1293659
1293787
1293912
1294030
1294151
1294268
1294389
1294525
1294649
1294776
1294910
1295033
1295167
1295298
1295422
1295547
1295667
1295791
1295929
1296052
1296180
1296311
1296434
1296569
1296696
1296822
1296953
1297076
1297200
1297321
1297444
1297570
1297695
1297824
1297949
1298076
1298205
1298336
1298470
1298601
1298724
1298845
1298964
1299080
1299196
1299310
1299427
1299543
1299662
1299794
1299919
1300051
1300178
1300298
1300423
1300556
1300684
1300813
1300932
1301055
1301176
1301292
1301407
1301520
1301637
1301753
1301873
1302003
1302126
1302251
1302379
1302512
1302643
1302770
1302904
1303026
1303151
1303272
1303392
1303517
1303637
1303760
1303885
1304012
1304137
1304261
1304394
1304522
1304662
1304794
1304924
1305060
1305188
1305324
1305452
1305585
1305713
1305840
1305972
1306098
1306232
1306358
1306496
1306632
1306762
1306896
1307021
1307152
1307284
1307424
1307557
1307688
1307824
1307953
1308089
1308217
1308348
1308476
1308605
1308741
1308869
1309007
1309138
1309271
1309411
1309543
1309688
1309820
1309964
1310093
1310224
1310360
1310491
1310617
1310739
1310885
1311014
1311149
1311282
1311412
1311547
1311674
1311819
1311947
1312086
1312223
1312363
1312502
1312643
1312774
1312905
1313040
1313170
1313307
1313433
1313566
1313689
1313819
1313953
1314079
1314216
1314345
1314488
1314617
1314744
1314865
1315000
1315139
1315280
1315421
1315570
1315700
1315846
1315989
1316123
1316261
1316411
1316557
1316712
1316863
1317011
1317158
1317293
1317426
1317552
1317691
1317814
1317938
1318057
1318178
1318309
1318432
1318566
1318695
1318828
1318962
1319092
1319224
1319353
1319500
1319633
1319768
1319902
1320029
1320158
1320282
1320410
1320540
1320673
1320814
1320946
1321086
1321222
1321365
1321494
1321633
1321764
1321906
1322043
1322172
1322295
1322418
1322534
1322654
1322771
1322894
1323008
1323146
1323277
1323421
1323554
1323701
1323838
1323993
1324132
1324290
1324421
1324549
1324669
1324782
1324894
1325005
1325116
1325224
1325334
1325442
1325550
1325658
1325763
1325872
1325984
1326095
1326236
1326363
1326500
1326637
1326765
1326911
1327047
1327192
1327339
1327469
1327597
1327712
1327841
1327970
1328093
1328226
1328363
1328487
1328607
1328721
1328846
1328982
1329102
1329227
1329354
1329474
1329607
1329728
1329852
1329986
1330109
1330252
1330378
1330509
1330633
1330759
1330894
1331020
1331154
1331278
1331408
1331529
1331666
1331802
1331930
1332070
1332195
1332323
1332454
1332578
1332718
1332846
1332980
1333115
1333239
1333379
1333505
1333633
1333774
1333900
1334035
1334162
1334291
1334421
1334544
1334673
1334794
1334924
1335057
1335184
1335324
1335451
1335591
1335723
1335865
1336006
1336136
1336258
1336377
1336520
1336648
1336771
1336886
1337007
1337126
1337258
1337387
1337529
1337668
1337810
1337958
1338094
1338256
1338393
1338554
1338675
1338848
1338979
1339129
1339252
1339386
1339514
1339646
1339802
1339937