---
Mammal:            human
Fs:                200
Integration_level: electrocardiogram

Channels:

    - type:   electrography
      name:   Data
      unit:   mV
      enable: yes

---

-0.32
-0.28
-0.32
-0.30
-0.32
-0.30
-0.30
-0.28
-0.29
-0.29
-0.31
-0.32
-0.30
-0.30
-0.29
-0.25
-0.23
-0.18
-0.17
-0.17
-0.15
-0.13
-0.12
-0.11
-0.11
-0.09
-0.11
-0.15
-0.21
-0.25
-0.29
-0.30
-0.32
-0.30
-0.34
-0.33
-0.35
-0.35
-0.29
-0.20
0.02
0.45
0.79
0.98
1.00
0.18
-1.02
-1.64
-1.77
-1.60
-1.19
-0.79
-0.60
-0.47
-0.44
-0.43
-0.44
-0.43
-0.42
-0.39
-0.42
-0.42
-0.42
-0.45
-0.45
-0.46
-0.47
-0.47
-0.43
-0.46
-0.46
-0.45
-0.50
-0.51
-0.51
-0.52
-0.50
-0.52
-0.53
-0.55
-0.61
-0.62
-0.65
-0.66
-0.67
-0.69
-0.70
-0.71
-0.78
-0.80
-0.80
-0.83
-0.84
-0.85
-0.87
-0.87
-0.87
-0.89
-0.91
-0.90
-0.89
-0.83
-0.76
-0.69
-0.64
-0.58
-0.52
-0.43
-0.40
-0.34
-0.30
-0.26
-0.22
-0.21
-0.23
-0.21
-0.23
-0.25
-0.24
-0.24
-0.24
-0.22
-0.22
-0.22
-0.26
-0.26
-0.29
-0.29
-0.28
-0.27
-0.26
-0.26
-0.28
-0.30
-0.32
-0.30
-0.31
-0.29
-0.30
-0.29
-0.30
-0.31
-0.30
-0.30
-0.29
-0.29
-0.28
-0.25
-0.27
-0.25
-0.28
-0.27
0.01
0.49
0.91
1.01
0.11
-1.06
-1.62
-1.74
-1.59
-1.28
-0.82
-0.41
-0.17
-0.12
-0.13
-0.15
-0.16
-0.20
-0.19
-0.20
-0.18
-0.20
-0.22
-0.23
-0.26
-0.31
-0.33
-0.33
-0.35
-0.36
-0.33
-0.32
-0.34
-0.36
-0.38
-0.42
-0.43
-0.46
-0.46
-0.46
-0.48
-0.50
-0.55
-0.59
-0.61
-0.63
-0.65
-0.65
-0.64
-0.64
-0.64
-0.66
-0.67
-0.65
-0.62
-0.58
-0.50
-0.44
-0.36
-0.31
-0.24
-0.22
-0.17
-0.12
-0.07
-0.04
-0.03
-0.03
-0.03
-0.06
-0.08
-0.08
-0.10
-0.11
-0.10
-0.10
-0.11
-0.13
-0.14
-0.15
-0.16
-0.16
-0.14
-0.14
-0.15
-0.17
-0.18
-0.19
-0.19
-0.21
-0.21
-0.20
-0.17
-0.15
-0.18
-0.20
-0.21
-0.22
-0.23
-0.21
-0.19
-0.14
-0.10
-0.02
0.06
0.09
0.13
0.13
0.07
0.05
0.02
-0.03
-0.09
-0.14
-0.22
-0.26
-0.29
-0.27
-0.27
-0.26
-0.26
-0.24
-0.24
-0.21
-0.17
-0.12
0.14
0.57
0.88
1.07
0.99
0.02
-1.11
-1.59
-1.63
-1.42
-1.00
-0.66
-0.45
-0.38
-0.32
-0.31
-0.32
-0.30
-0.30
-0.28
-0.28
-0.27
-0.25
-0.27
-0.31
-0.33
-0.32
-0.32
-0.32
-0.29
-0.30
-0.28
-0.33
-0.35
-0.38
-0.40
-0.42
-0.41
-0.42
-0.43
-0.41
-0.46
-0.50
-0.52
-0.53
-0.56
-0.57
-0.58
-0.60
-0.63
-0.68
-0.71
-0.72
-0.70
-0.74
-0.71
-0.71
-0.69
-0.68
-0.68
-0.66
-0.63
-0.55
-0.47
-0.37
-0.31
-0.23
-0.18
-0.12
-0.09
-0.06
-0.02
0.01
0.04
0.06
0.07
0.08
0.04
0.04
0.04
0.05
0.04
0.07
0.09
0.08
0.06
0.05
0.02
0.02
0.03
0.03
0.03
0.04
0.02
0.05
-0.00
-0.02
-0.02
-0.00
-0.01
0.03
0.03
0.03
0.02
0.02
0.03
0.02
-0.01
0.00
0.03
0.03
0.01
0.01
-0.01
-0.02
-0.01
-0.00
0.00
0.01
0.02
0.00
-0.00
0.01
0.01
0.01
0.02
0.04
0.05
0.07
0.05
0.02
0.01
0.01
0.02
0.01
0.03
0.05
0.03
0.03
0.02
0.02
0.01
0.04
0.06
0.04
0.03
0.03
0.02
0.02
-0.01
0.00
0.02
0.04
0.01
0.03
0.06
0.03
0.04
0.03
0.01
0.03
0.03
0.05
0.10
0.14
0.18
0.18
0.16
0.16
0.19
0.23
0.24
0.29
0.29
0.20
0.18
0.09
0.04
0.02
-0.01
-0.05
-0.03
-0.00
0.01
0.03
0.09
0.18
0.39
0.84
1.21
1.49
1.47
0.61
-0.55
-1.21
-1.26
-1.14
-0.92
-0.56
-0.27
-0.14
-0.10
-0.07
-0.06
-0.06
-0.05
-0.02
-0.02
-0.02
-0.02
-0.02
-0.04
-0.04
-0.04
-0.00
0.00
-0.00
-0.00
-0.03
-0.07
-0.10
-0.12
-0.09
-0.08
-0.11
-0.13
-0.12
-0.12
-0.17
-0.24
-0.26
-0.29
-0.31
-0.31
-0.30
-0.31
-0.33
-0.39
-0.41
-0.43
-0.44
-0.46
-0.44
-0.43
-0.43
-0.44
-0.40
-0.34
-0.31
-0.25
-0.22
-0.12
-0.05
-0.00
0.01
0.01
-0.01
0.04
0.07
0.11
0.12
0.11
0.10
0.07
0.08
0.10
0.10
0.09
0.10
0.11
0.11
0.11
0.10
0.07
0.07
0.07
0.06
0.09
0.10
0.10
0.11
0.06
0.04
0.05
0.05
0.05
0.05
0.05
0.05
0.04
0.04
0.04
0.01
0.03
0.09
0.16
0.19
0.37
0.77
1.19
1.36
1.09
0.00
-1.08
-1.42
-1.36
-1.14
-0.77
-0.43
-0.22
-0.11
-0.03
-0.02
-0.00
-0.01
0.00
-0.01
-0.02
-0.02
-0.02
-0.02
-0.02
-0.03
-0.03
-0.04
-0.05
-0.08
-0.07
-0.07
-0.10
-0.10
-0.11
-0.11
-0.11
-0.16
-0.19
-0.22
-0.25
-0.27
-0.27
-0.29
-0.34
-0.39
-0.41
-0.45
-0.48
-0.47
-0.49
-0.49
-0.52
-0.49
-0.51
-0.47
-0.44
-0.38
-0.33
-0.27
-0.21
-0.12
-0.08
-0.06
-0.03
-0.02
-0.01
0.02
0.03
0.01
-0.00
-0.02
-0.06
-0.09
-0.08
-0.10
-0.09
-0.10
-0.12
-0.11
-0.14
-0.16
-0.18
-0.17
-0.18
-0.19
-0.18
-0.20
-0.22
-0.22
-0.24
-0.22
-0.27
-0.26
-0.24
-0.25
-0.23
-0.26
-0.28
-0.25
-0.20
-0.15
-0.06
0.00
0.02
0.03
0.02
-0.05
-0.11
-0.14
-0.19
-0.25
-0.32
-0.37
-0.38
-0.42
-0.44
-0.43
-0.43
-0.34
-0.24
-0.10
0.25
0.60
0.76
0.86
0.43
-0.77
-1.63
-1.88
-1.74
-1.44
-1.08
-0.82
-0.69
-0.63
-0.59
-0.56
-0.54
-0.54
-0.54
-0.54
-0.55
-0.56
-0.58
-0.58
-0.60
-0.58
-0.59
-0.62
-0.65
-0.65
-0.67
-0.66
-0.70
-0.71
-0.70
-0.71
-0.73
-0.74
-0.78
-0.82
-0.85
-0.89
-0.89
-0.91
-0.92
-0.96
-1.03
-1.06
-1.06
-1.07
-1.11
-1.12
-1.12
-1.15
-1.17
-1.19
-1.17
-1.19
-1.16
-1.14
-1.08
-0.99
-0.90
-0.85
-0.81
-0.75
-0.68
-0.63
-0.56
-0.49
-0.44
-0.41
-0.42
-0.44
-0.44
-0.41
-0.43
-0.43
-0.41
-0.43
-0.42
-0.43
-0.44
-0.45
-0.44
-0.45
-0.46
-0.46
-0.46
-0.46
-0.48
-0.49
-0.51
-0.53
-0.52
-0.52
-0.51
-0.48
-0.52
-0.53
-0.54
-0.55
-0.56
-0.55
-0.54
-0.54
-0.53
-0.54
-0.57
-0.58
-0.60
-0.59
-0.57
-0.57
-0.56
-0.56
-0.58
-0.60
-0.62
-0.62
-0.62
-0.60
-0.59
-0.58
-0.60
-0.60
-0.59
-0.62
-0.61
-0.61
-0.62
-0.58
-0.58
-0.61
-0.61
-0.64
-0.64
-0.65
-0.63
-0.62
-0.60
-0.60
-0.60
-0.63
-0.65
-0.64
-0.63
-0.66
-0.62
-0.63
-0.62
-0.63
-0.63
-0.65
-0.65
-0.66
-0.65
-0.64
-0.62
-0.61
-0.64
-0.63
-0.66
-0.66
-0.66
-0.63
-0.57
-0.54
-0.50
-0.51
-0.52
-0.51
-0.50
-0.49
-0.49
-0.49
-0.51
-0.55
-0.58
-0.62
-0.66
-0.68
-0.72
-0.72
-0.70
-0.70
-0.69
-0.67
-0.62
-0.54
-0.28
0.16
0.48
0.66
0.69
-0.09
-1.27
-1.92
-2.08
-1.90
-1.56
-1.18
-0.96
-0.87
-0.78
-0.78
-0.80
-0.80
-0.79
-0.77
-0.75
-0.73
-0.76
-0.77
-0.78
-0.81
-0.79
-0.80
-0.82
-0.78
-0.80
-0.79
-0.81
-0.82
-0.84
-0.85
-0.86
-0.87
-0.87
-0.85
-0.87
-0.93
-0.97
-0.99
-1.00
-1.04
-1.05
-1.04
-1.07
-1.08
-1.11
-1.14
-1.16
-1.18
-1.20
-1.21
-1.21
-1.22
-1.23
-1.24
-1.22
-1.19
-1.16
-1.09
-1.02
-0.97
-0.91
-0.82
-0.75
-0.66
-0.64
-0.62
-0.56
-0.54
-0.53
-0.51
-0.53
-0.55
-0.56
-0.58
-0.57
-0.55
-0.53
-0.55
-0.54
-0.56
-0.57
-0.59
-0.57
-0.57
-0.57
-0.58
-0.58
-0.57
-0.60
-0.62
-0.62
-0.62
-0.60
-0.58
-0.58
-0.59
-0.60
-0.62
-0.61
-0.60
-0.61
-0.59
-0.57
-0.55
-0.55
-0.60
-0.57
-0.33
0.15
0.59
0.67
-0.32
-1.44
-1.94
-2.03
-1.92
-1.71
-1.32
-0.89
-0.62
-0.54
-0.52
-0.50
-0.52
-0.50
-0.51
-0.53
-0.49
-0.51
-0.52
-0.52
-0.55
-0.58
-0.61
-0.60
-0.61
-0.61
-0.62
-0.62
-0.64
-0.66
-0.67
-0.68
-0.71
-0.74
-0.73
-0.75
-0.77
-0.78
-0.81
-0.85
-0.91
-0.93
-0.92
-0.91
-0.91
-0.93
-0.95
-0.98
-0.96
-0.96
-0.92
-0.87
-0.82
-0.77
-0.71
-0.64
-0.59
-0.52
-0.49
-0.45
-0.41
-0.36
-0.35
-0.35
-0.38
-0.39
-0.42
-0.43
-0.44
-0.44
-0.44
-0.44
-0.44
-0.49
-0.49
-0.50
-0.50
-0.49
-0.49
-0.48
-0.48
-0.49
-0.50
-0.50
-0.53
-0.53
-0.54
-0.49
-0.50
-0.50
-0.50
-0.51
-0.53
-0.53
-0.52
-0.50
-0.45
-0.42
-0.34
-0.25
-0.20
-0.18
-0.16
-0.20
-0.22
-0.25
-0.30
-0.35
-0.44
-0.51
-0.55
-0.58
-0.56
-0.57
-0.55
-0.53
-0.53
-0.55
-0.51
-0.45
-0.37
-0.04
0.39
0.68
0.84
0.58
-0.53
-1.54
-1.94
-1.90
-1.58
-1.15
-0.83
-0.70
-0.64
-0.64
-0.64
-0.61
-0.61
-0.60
-0.57
-0.56
-0.56
-0.57
-0.56
-0.59
-0.60
-0.58
-0.59
-0.58
-0.57
-0.61
-0.62
-0.64
-0.68
-0.67
-0.67
-0.68
-0.66
-0.68
-0.71
-0.73
-0.78
-0.80
-0.82
-0.85
-0.86
-0.85
-0.88
-0.89
-0.95
-0.99
-0.99
-1.01
-1.03
-1.02
-1.03
-0.99
-1.01
-1.00
-0.99
-0.94
-0.88
-0.81
-0.72
-0.64
-0.56
-0.51
-0.47
-0.43
-0.40
-0.36
-0.33
-0.29
-0.26
-0.26
-0.27
-0.28
-0.29
-0.29
-0.28
-0.29
-0.27
-0.26
-0.26
-0.28
-0.30
-0.30
-0.30
-0.30
-0.27
-0.29
-0.30
-0.30
-0.35
-0.31
-0.33
-0.33
-0.31
-0.31
-0.31
-0.32
-0.32
-0.33
-0.34
-0.33
-0.34
-0.34
-0.30
-0.30
-0.31
-0.31
-0.34
-0.34
-0.33
-0.34
-0.34
-0.31
-0.30
-0.31
-0.32
-0.33
-0.34
-0.32
-0.31
-0.32
-0.31
-0.31
-0.30
-0.31
-0.33
-0.31
-0.32
-0.33
-0.32
-0.31
-0.28
-0.30
-0.30
-0.32
-0.31
-0.32
-0.32
-0.32
-0.30
-0.29
-0.29
-0.31
-0.31
-0.31
-0.31
-0.30
-0.28
-0.27
-0.25
-0.27
-0.26
-0.28
-0.28
-0.25
-0.25
-0.24
-0.22
-0.20
-0.16
-0.15
-0.13
-0.14
-0.12
-0.08
-0.03
0.03
0.02
0.04
0.00
-0.07
-0.11
-0.15
-0.21
-0.21
-0.20
-0.23
-0.23
-0.24
-0.22
-0.24
-0.16
-0.09
0.11
0.53
0.89
1.11
1.28
0.81
-0.36
-1.26
-1.53
-1.42
-1.12
-0.78
-0.50
-0.39
-0.32
-0.28
-0.27
-0.24
-0.23
-0.23
-0.22
-0.20
-0.24
-0.24
-0.26
-0.26
-0.25
-0.23
-0.21
-0.22
-0.22
-0.24
-0.28
-0.28
-0.28
-0.26
-0.25
-0.26
-0.27
-0.28
-0.33
-0.35
-0.35
-0.36
-0.36
-0.36
-0.36
-0.39
-0.45
-0.49
-0.49
-0.51
-0.52
-0.50
-0.51
-0.51
-0.51
-0.55
-0.53
-0.53
-0.55
-0.55
-0.52
-0.47
-0.41
-0.37
-0.35
-0.30
-0.24
-0.20
-0.14
-0.06
0.00
0.04
0.08
0.08
0.08
0.10
0.11
0.13
0.15
0.15
0.14
0.14
0.11
0.10
0.11
0.10
0.10
0.08
0.10
0.13
0.10
0.11
0.09
0.09
0.09
0.11
0.12
0.09
0.11
0.08
0.06
0.06
0.05
0.06
0.06
0.08
0.09
0.10
0.08
0.06
0.04
0.08
0.07
0.10
0.11
0.11
0.10
0.09
0.08
0.07
0.08
0.08
0.08
0.11
0.09
0.10
0.10
0.06
0.09
0.09
0.09
0.10
0.08
0.09
0.12
0.10
0.10
0.07
0.06
0.07
0.10
0.11
0.11
0.13
0.15
0.18
0.18
0.20
0.23
0.26
0.30
0.26
0.27
0.26
0.18
0.15
0.11
0.12
0.10
0.07
0.05
0.03
0.04
0.04
0.06
0.11
0.19
0.37
0.72
1.19
1.48
1.61
1.11
-0.09
-0.99
-1.24
-1.10
-0.92
-0.62
-0.36
-0.19
-0.13
-0.07
-0.02
-0.00
0.02
0.02
0.02
0.02
0.01
0.01
-0.01
-0.00
0.04
0.04
0.01
-0.00
-0.04
-0.05
-0.06
-0.08
-0.08
-0.07
-0.09
-0.10
-0.10
-0.15
-0.18
-0.18
-0.21
-0.24
-0.27
-0.30
-0.33
-0.37
-0.42
-0.44
-0.48
-0.52
-0.54
-0.52
-0.54
-0.58
-0.59
-0.63
-0.62
-0.64
-0.61
-0.55
-0.49
-0.44
-0.40
-0.34
-0.28
-0.23
-0.19
-0.12
-0.05
-0.01
0.02
0.02
0.07
0.09
0.08
0.09
0.10
0.15
0.17
0.18
0.15
0.16
0.13
0.16
0.13
0.16
0.17
0.15
0.14
0.14
0.12
0.11
0.11
0.09
0.10
0.12
0.12
0.10
0.07
0.07
0.06
0.06
0.09
0.06
0.09
0.08
0.06
0.05
0.02
0.03
0.04
0.03
0.05
0.05
0.05
0.04
0.03
0.03
0.04
0.03
0.03
0.04
0.02
0.02
0.01
0.01
0.00
-0.01
0.01
-0.01
0.02
0.01
0.01
0.01
-0.02
-0.01
0.00
-0.01
0.02
0.03
0.02
0.03
0.05
0.08
0.09
0.09
0.15
0.18
0.17
0.16
0.16
0.16
0.11
0.09
0.04
0.01
0.03
0.02
-0.03
-0.06
-0.08
-0.07
-0.05
-0.05
0.04
0.16
0.39
0.79
1.10
1.25
1.18
0.30
-0.85
-1.39
-1.42
-1.23
-0.93
-0.56
-0.33
-0.24
-0.17
-0.12
-0.11
-0.09
-0.09
-0.08
-0.06
-0.08
-0.12
-0.12
-0.13
-0.12
-0.11
-0.10
-0.11
-0.14
-0.14
-0.19
-0.18
-0.19
-0.19
-0.20
-0.21
-0.23
-0.27
-0.29
-0.32
-0.33
-0.38
-0.38
-0.41
-0.45
-0.49
-0.53
-0.56
-0.59
-0.62
-0.65
-0.68
-0.70
-0.75
-0.76
-0.80
-0.82
-0.82
-0.81
-0.79
-0.76
-0.70
-0.67
-0.60
-0.58
-0.49
-0.42
-0.35
-0.31
-0.22
-0.16
-0.11
-0.09
-0.06
-0.06
-0.05
-0.01
0.00
0.01
0.04
0.02
0.00
0.00
-0.01
-0.00
-0.00
0.01
0.04
0.02
0.01
-0.00
-0.00
-0.02
-0.03
-0.02
-0.04
-0.01
-0.03
-0.02
-0.04
-0.05
-0.07
-0.06
-0.07
-0.06
-0.03
-0.04
-0.04
-0.05
-0.07
-0.08
-0.09
-0.08
-0.05
-0.05
-0.04
-0.06
-0.09
-0.11
-0.10
-0.09
-0.09
-0.09
-0.06
-0.06
-0.07
-0.09
-0.10
-0.09
-0.09
-0.09
-0.07
-0.08
-0.07
-0.08
-0.08
-0.09
-0.10
-0.11
-0.08
-0.08
-0.06
-0.05
-0.04
-0.02
0.01
0.03
0.03
0.07
0.09
0.08
0.02
0.06
0.04
-0.00
-0.03
-0.08
-0.10
-0.10
-0.13
-0.15
-0.18
-0.19
-0.19
-0.18
-0.12
-0.04
0.17
0.56
0.94
1.11
1.23
0.77
-0.40
-1.30
-1.56
-1.42
-1.13
-0.78
-0.52
-0.39
-0.31
-0.28
-0.26
-0.26
-0.24
-0.23
-0.25
-0.26
-0.27
-0.27
-0.29
-0.28
-0.28
-0.29
-0.28
-0.29
-0.31
-0.32
-0.36
-0.35
-0.37
-0.38
-0.38
-0.37
-0.38
-0.40
-0.45
-0.47
-0.51
-0.54
-0.57
-0.56
-0.60
-0.63
-0.68
-0.73
-0.79
-0.81
-0.83
-0.85
-0.88
-0.91
-0.92
-0.94
-0.97
-0.97
-1.00
-0.97
-0.90
-0.84
-0.81
-0.74
-0.69
-0.64
-0.57
-0.47
-0.40
-0.31
-0.26
-0.21
-0.20
-0.22
-0.18
-0.18
-0.16
-0.15
-0.11
-0.12
-0.13
-0.15
-0.16
-0.16
-0.14
-0.17
-0.17
-0.14
-0.15
-0.15
-0.16
-0.17
-0.20
-0.19
-0.19
-0.18
-0.17
-0.17
-0.18
-0.19
-0.19
-0.20
-0.20
-0.21
-0.21
-0.21
-0.20
-0.22
-0.22
-0.25
-0.24
-0.21
-0.23
-0.20
-0.22
-0.21
-0.21
-0.24
-0.23
-0.23
-0.23
-0.21
-0.21
-0.22
-0.23
-0.21
-0.23
-0.26
-0.24
-0.23
-0.22
-0.21
-0.23
-0.23
-0.23
-0.25
-0.23
-0.23
-0.22
-0.18
-0.15
-0.08
-0.09
-0.08
-0.08
-0.08
-0.06
-0.09
-0.05
-0.04
-0.07
-0.08
-0.15
-0.18
-0.23
-0.26
-0.27
-0.28
-0.26
-0.24
-0.23
-0.21
-0.14
-0.03
0.29
0.73
0.99
1.19
0.99
-0.08
-1.15
-1.59
-1.55
-1.31
-0.91
-0.62
-0.43
-0.35
-0.31
-0.32
-0.32
-0.33
-0.32
-0.29
-0.28
-0.27
-0.29
-0.30
-0.32
-0.32
-0.36
-0.37
-0.35
-0.33
-0.33
-0.34
-0.37
-0.38
-0.39
-0.38
-0.40
-0.43
-0.44
-0.45
-0.46
-0.49
-0.55
-0.58
-0.61
-0.66
-0.66
-0.66
-0.70
-0.75
-0.79
-0.84
-0.87
-0.90
-0.90
-0.90
-0.92
-0.93
-0.95
-0.96
-0.92
-0.89
-0.84
-0.77
-0.68
-0.59
-0.51
-0.45
-0.38
-0.34
-0.28
-0.22
-0.19
-0.15
-0.13
-0.12
-0.10
-0.10
-0.11
-0.13
-0.13
-0.12
-0.11
-0.09
-0.09
-0.09
-0.12
-0.14
-0.14
-0.13
-0.13
-0.14
-0.12
-0.14
-0.14
-0.15
-0.15
-0.17
-0.18
-0.20
-0.17
-0.16
-0.17
-0.18
-0.19
-0.21
-0.22
-0.20
-0.21
-0.21
-0.20
-0.18
-0.18
-0.22
-0.21
-0.21
-0.20
-0.19
-0.19
-0.19
-0.17
-0.22
-0.21
-0.21
-0.22
-0.23
-0.21
-0.20
-0.18
-0.18
-0.16
-0.18
-0.19
-0.21
-0.21
-0.20
-0.18
-0.18
-0.16
-0.16
-0.14
-0.13
-0.08
-0.06
-0.05
-0.03
0.00
0.00
-0.03
-0.03
-0.05
-0.11
-0.12
-0.11
-0.13
-0.16
-0.17
-0.22
-0.25
-0.25
-0.23
-0.22
-0.16
-0.08
0.04
0.37
0.77
1.04
1.23
0.93
-0.21
-1.23
-1.61
-1.55
-1.30
-0.94
-0.63
-0.46
-0.37
-0.30
-0.29
-0.24
-0.22
-0.21
-0.24
-0.26
-0.26
-0.25
-0.29
-0.26
-0.27
-0.26
-0.27
-0.28
-0.29
-0.27
-0.29
-0.31
-0.30
-0.31
-0.30
-0.27
-0.34
-0.37
-0.41
-0.40
-0.42
-0.44
-0.46
-0.51
-0.52
-0.56
-0.63
-0.67
-0.70
-0.74
-0.73
-0.72
-0.76
-0.79
-0.83
-0.84
-0.83
-0.84
-0.79
-0.69
-0.64
-0.59
-0.52
-0.46
-0.39
-0.31
-0.29
-0.24
-0.17
-0.12
-0.07
-0.09
-0.08
-0.08
-0.13
-0.12
-0.11
-0.08
-0.09
-0.12
-0.10
-0.12
-0.13
-0.12
-0.16
-0.16
-0.14
-0.12
-0.13
-0.13
-0.15
-0.16
-0.18
-0.17
-0.18
-0.16
-0.16
-0.16
-0.17
-0.18
-0.21
-0.19
-0.17
-0.17
-0.17
-0.12
-0.07
0.00
0.26
0.71
1.08
1.33
1.16
0.12
-1.05
-1.51
-1.40
-1.13
-0.74
-0.39
-0.20
-0.10
-0.06
-0.10
-0.10
-0.13
-0.11
-0.10
-0.10
-0.11
-0.09
-0.12
-0.14
-0.14
-0.18
-0.24
-0.25
-0.24
-0.24
-0.26
-0.23
-0.22
-0.22
-0.28
-0.30
-0.33
-0.35
-0.37
-0.39
-0.40
-0.40
-0.43
-0.45
-0.50
-0.56
-0.58
-0.58
-0.61
-0.62
-0.61
-0.62
-0.67
-0.64
-0.61
-0.53
-0.45
-0.34
-0.22
-0.16
-0.05
-0.04
-0.03
0.02
0.03
0.05
0.07
0.07
0.09
0.07
0.04
-0.00
-0.04
-0.06
-0.06
-0.08
-0.09
-0.10
-0.12
-0.17
-0.17
-0.18
-0.19
-0.18
-0.18
-0.19
-0.21
-0.22
-0.22
-0.22
-0.25
-0.25
-0.24
-0.24
-0.23
-0.26
-0.30
-0.32
-0.33
-0.32
-0.29
-0.26
-0.22
-0.18
-0.14
-0.04
0.08
0.29
0.72
1.11
1.34
1.30
0.43
-0.81
-1.43
-1.50
-1.29
-0.94
-0.58
-0.37
-0.27
-0.21
-0.17
-0.19
-0.19
-0.22
-0.23
-0.24
-0.23
-0.21
-0.22
-0.24
-0.24
-0.26
-0.27
-0.28
-0.28
-0.27
-0.28
-0.28
-0.31
-0.35
-0.38
-0.43
-0.47
-0.50
-0.53
-0.58
-0.61
-0.63
-0.66
-0.67
-0.63
-0.61
-0.59
-0.57
-0.58
-0.61
-0.60
-0.61
-0.58
-0.54
-0.53
-0.52
-0.46
-0.40
-0.35
-0.34
-0.29
-0.22
-0.19
-0.18
-0.14
-0.09
-0.05
-0.05
-0.04
-0.05
-0.06
-0.07
-0.07
-0.07
-0.04
-0.07
-0.07
-0.09
-0.10
-0.13
-0.12
-0.12
-0.13
-0.15
-0.18
-0.20
-0.23
-0.26
-0.28
-0.30
-0.27
-0.25
-0.27
-0.26
-0.25
-0.17
-0.10
0.03
0.27
0.57
0.82
1.04
0.83
-0.31
-1.38
-1.69
-1.42
-0.89
-0.50
-0.29
-0.18
-0.14
-0.17
-0.19
-0.18
-0.18
-0.20
-0.19
-0.17
-0.16
-0.18
-0.17
-0.22
-0.23
-0.23
-0.23
-0.23
-0.24
-0.24
-0.28
-0.33
-0.36
-0.42
-0.47
-0.49
-0.51
-0.50
-0.52
-0.53
-0.58
-0.61
-0.64
-0.64
-0.63
-0.55
-0.56
-0.59
-0.61
-0.63
-0.64
-0.65
-0.67
-0.65
-0.61
-0.56
-0.50
-0.46
-0.42
-0.36
-0.28
-0.21
-0.15
-0.10
-0.07
-0.05
-0.04
-0.06
-0.06
-0.08
-0.11
-0.07
-0.07
-0.08
-0.11
-0.12
-0.12
-0.14
-0.04
0.07
0.30
0.61
0.93
1.19
1.33
0.53
-0.89
-1.48
-1.44
-1.14
-0.67
-0.33
-0.17
-0.09
-0.08
-0.08
-0.10
-0.10
-0.09
-0.09
-0.09
-0.06
-0.09
-0.15
-0.17
-0.20
-0.18
-0.17
-0.16
-0.17
-0.21
-0.21
-0.24
-0.27
-0.26
-0.28
-0.28
-0.31
-0.35
-0.36
-0.43
-0.51
-0.53
-0.56
-0.55
-0.57
-0.58
-0.58
-0.57
-0.58
-0.57
-0.54
-0.49
-0.42
-0.35
-0.28
-0.24
-0.17
-0.10
-0.03
0.06
0.08
0.08
0.11
0.11
0.10
0.07
0.03
0.02
-0.01
-0.01
-0.03
-0.06
-0.05
-0.06
-0.09
-0.08
-0.09
-0.14
-0.12
-0.16
-0.13
-0.12
-0.10
-0.12
-0.12
-0.15
-0.13
-0.14
-0.14
-0.15
-0.11
-0.11
-0.09
0.10
0.51
0.79
0.94
0.50
-0.70
-1.63
-1.87
-1.65
-1.18
-0.69
-0.39
-0.23
-0.12
-0.10
-0.11
-0.11
-0.12
-0.13
-0.16
-0.17
-0.18
-0.17
-0.18
-0.18
-0.19
-0.20
-0.23
-0.26
-0.26
-0.27
-0.26
-0.27
-0.28
-0.30
-0.34
-0.35
-0.36
-0.38
-0.40
-0.44
-0.43
-0.44
-0.46
-0.48
-0.50
-0.51
-0.52
-0.51
-0.51
-0.51
-0.49
-0.47
-0.47
-0.50
-0.47
-0.43
-0.39
-0.33
-0.21
-0.10
-0.03
0.01
0.02
0.01
0.01
0.03
0.03
0.01
0.01
-0.02
-0.04
-0.10
-0.11
-0.14
-0.14
-0.15
-0.15
-0.16
-0.19
-0.19
-0.22
-0.23
-0.24
-0.23
-0.23
-0.21
-0.20
-0.23
-0.22
-0.28
-0.29
-0.31
-0.23
0.08
0.48
0.76
0.90
0.30
-0.91
-1.71
-1.84
-1.54
-1.06
-0.64
-0.43
-0.30
-0.27
-0.28
-0.27
-0.30
-0.26
-0.27
-0.25
-0.26
-0.26
-0.28
-0.28
-0.31
-0.31
-0.31
-0.30
-0.30
-0.30
-0.31
-0.35
-0.38
-0.39
-0.41
-0.43
-0.43
-0.46
-0.47
-0.49
-0.51
-0.54
-0.60
-0.61
-0.61
-0.62
-0.63
-0.62
-0.64
-0.63
-0.63
-0.64
-0.63
-0.60
-0.57
-0.50
-0.43
-0.36
-0.34
-0.27
-0.25
-0.20
-0.15
-0.10
-0.06
-0.03
-0.02
-0.01
-0.06
-0.10
-0.07
-0.08
-0.07
-0.08
-0.09
-0.12
-0.12
-0.14
-0.16
-0.15
-0.16
-0.15
-0.15
-0.14
-0.14
-0.16
-0.18
-0.18
-0.20
-0.20
-0.19
-0.18
-0.18
-0.16
-0.17
-0.20
-0.19
-0.19
-0.19
-0.19
-0.17
-0.18
-0.18
-0.18
-0.20
-0.19
-0.22
-0.22
-0.22
-0.19
-0.16
-0.16
-0.20
-0.19
-0.22
-0.19
-0.20
-0.18
-0.16
-0.18
-0.18
-0.19
-0.23
-0.21
-0.20
-0.19
-0.18
-0.16
-0.18
-0.18
-0.19
-0.20
-0.20
-0.21
-0.20
-0.21
-0.18
-0.18
-0.18
-0.22
-0.22
-0.21
-0.23
-0.22
-0.19
-0.18
-0.16
-0.20
-0.22
-0.24
-0.22
-0.21
-0.22
-0.19
-0.18
-0.20
-0.19
-0.16
-0.13
-0.10
-0.11
-0.09
-0.07
-0.02
-0.00
-0.01
0.01
-0.01
-0.07
-0.12
-0.16
-0.18
-0.22
-0.25
-0.27
-0.30
-0.31
-0.29
-0.27
-0.20
-0.10
0.09
0.49
0.84
1.05
1.13
0.48
-0.68
-1.47
-1.63
-1.48
-1.17
-0.79
-0.57
-0.46
-0.39
-0.37
-0.37
-0.34
-0.33
-0.33
-0.35
-0.37
-0.38
-0.37
-0.36
-0.35
-0.36
-0.36
-0.38
-0.40
-0.40
-0.43
-0.44
-0.44
-0.42
-0.41
-0.42
-0.42
-0.44
-0.47
-0.48
-0.49
-0.48
-0.47
-0.46
-0.48
-0.48
-0.51
-0.54
-0.52
-0.52
-0.52
-0.49
-0.50
-0.48
-0.51
-0.50
-0.52
-0.51
-0.51
-0.49
-0.43
-0.41
-0.39
-0.37
-0.35
-0.32
-0.26
-0.22
-0.17
-0.14
-0.09
-0.07
-0.06
-0.07
-0.08
-0.07
-0.06
-0.06
-0.06
-0.07
-0.10
-0.11
-0.14
-0.17
-0.16
-0.17
-0.17
-0.13
-0.13
-0.14
-0.13
-0.16
-0.17
-0.17
-0.19
-0.18
-0.16
-0.15
-0.16
-0.18
-0.22
-0.22
-0.23
-0.22
-0.19
-0.20
-0.19
-0.18
-0.21
-0.25
-0.23
-0.23
-0.22
-0.20
-0.19
-0.20
-0.21
-0.22
-0.23
-0.22
-0.25
-0.24
-0.21
-0.22
-0.22
-0.22
-0.22
-0.25
-0.25
-0.24
-0.24
-0.22
-0.21
-0.23
-0.22
-0.24
-0.27
-0.26
-0.26
-0.27
-0.24
-0.25
-0.24
-0.23
-0.25
-0.24
-0.23
-0.23
-0.20
-0.14
-0.09
-0.10
-0.11
-0.10
-0.10
-0.12
-0.11
-0.08
-0.12
-0.14
-0.16
-0.22
-0.28
-0.31
-0.32
-0.33
-0.34
-0.31
-0.30
-0.28
-0.22
-0.14
0.10
0.51
0.85
1.06
1.00
0.13
-0.99
-1.59
-1.69
-1.52
-1.17
-0.83
-0.60
-0.46
-0.37
-0.38
-0.38
-0.40
-0.39
-0.38
-0.38
-0.40
-0.39
-0.39
-0.40
-0.39
-0.40
-0.41
-0.42
-0.43
-0.41
-0.41
-0.43
-0.44
-0.47
-0.51
-0.51
-0.52
-0.56
-0.56
-0.59
-0.61
-0.63
-0.65
-0.68
-0.73
-0.74
-0.78
-0.78
-0.79
-0.81
-0.83
-0.87
-0.89
-0.89
-0.94
-0.96
-0.93
-0.89
-0.88
-0.85
-0.78
-0.76
-0.70
-0.64
-0.57
-0.49
-0.41
-0.37
-0.34
-0.29
-0.28
-0.27
-0.27
-0.25
-0.23
-0.24
-0.22
-0.23
-0.25
-0.26
-0.27
-0.28
-0.28
-0.27
-0.24
-0.24
-0.25
-0.26
-0.28
-0.29
-0.29
-0.29
-0.29
-0.28
-0.26
-0.26
-0.27
-0.28
-0.28
-0.29
-0.27
-0.30
-0.27
-0.28
-0.29
-0.31
-0.27
0.03
0.54
0.92
1.04
0.28
-0.93
-1.66
-1.76
-1.57
-1.18
-0.77
-0.48
-0.33
-0.28
-0.25
-0.23
-0.26
-0.24
-0.27
-0.27
-0.24
-0.25
-0.23
-0.23
-0.25
-0.25
-0.24
-0.26
-0.27
-0.29
-0.27
-0.27
-0.28
-0.27
-0.32
-0.33
-0.36
-0.39
-0.40
-0.44
-0.45
-0.45
-0.47
-0.50
-0.52
-0.54
-0.57
-0.59
-0.58
-0.57
-0.55
-0.59
-0.61
-0.58
-0.56
-0.50
-0.43
-0.35
-0.28
-0.21
-0.16
-0.15
-0.11
-0.10
-0.08
-0.04
-0.02
-0.01
-0.01
-0.01
-0.08
-0.10
-0.10
-0.11
-0.12
-0.12
-0.10
-0.12
-0.12
-0.13
-0.16
-0.14
-0.13
-0.13
-0.16
-0.18
-0.17
-0.16
-0.20
-0.22
-0.21
-0.19
-0.17
-0.17
-0.18
-0.17
-0.20
-0.21
-0.21
-0.18
-0.14
-0.15
-0.07
0.01
0.08
0.11
0.08
0.10
0.10
0.09
0.03
-0.02
-0.10
-0.15
-0.17
-0.19
-0.29
-0.30
-0.27
-0.20
-0.16
-0.11
-0.04
0.19
0.61
1.02
1.25
1.10
0.12
-0.95
-1.47
-1.48
-1.35
-1.12
-0.77
-0.50
-0.43
-0.41
-0.35
-0.32
-0.32
-0.33
-0.32
-0.32
-0.30
-0.26
-0.29
-0.32
-0.35
-0.36
-0.36
-0.39
-0.41
-0.42
-0.50
-0.53
-0.52
-0.50
-0.56
-0.66
-0.68
-0.68
-0.71
-0.70
-0.73
-0.80
-0.81
-0.83
-0.88
-0.92
-0.93
-0.97
-0.96
-0.96
-1.01
-1.05
-1.09
-1.08
-1.10
-1.09
-1.05
-1.02
-0.95
-0.90
-0.83
-0.77
-0.72
-0.67
-0.61
-0.57
-0.49
-0.43
-0.43
-0.44
-0.44
-0.42
-0.40
-0.36
-0.36
-0.35
-0.32
-0.30
-0.33
-0.36
-0.37
-0.37
-0.37
-0.37
-0.35
-0.34
-0.35
-0.36
-0.38
-0.42
-0.42
-0.43
-0.41
-0.41
-0.40
-0.41
-0.44
-0.45
-0.45
-0.48
-0.49
-0.47
-0.47
-0.47
-0.48
-0.51
-0.51
-0.50
-0.50
-0.50
-0.50
-0.50
-0.50
-0.52
-0.55
-0.55
-0.53
-0.53
-0.54
-0.53
-0.51
-0.51
-0.53
-0.54
-0.54
-0.54
-0.54
-0.55
-0.54
-0.53
-0.52
-0.54
-0.57
-0.56
-0.55
-0.53
-0.54
-0.53
-0.51
-0.52
-0.54
-0.56
-0.56
-0.55
-0.54
-0.53
-0.54
-0.52
-0.52
-0.54
-0.56
-0.55
-0.55
-0.56
-0.56
-0.55
-0.54
-0.52
-0.54
-0.56
-0.58
-0.56
-0.54
-0.54
-0.57
-0.54
-0.53
-0.51
-0.46
-0.45
-0.43
-0.41
-0.37
-0.35
-0.36
-0.37
-0.37
-0.40
-0.44
-0.47
-0.49
-0.50
-0.52
-0.55
-0.61
-0.63
-0.63
-0.61
-0.60
-0.51
-0.40
-0.20
0.15
0.45
0.59
0.61
0.01
-1.09
-1.81
-1.94
-1.79
-1.45
-1.11
-0.89
-0.74
-0.66
-0.63
-0.62
-0.62
-0.61
-0.62
-0.63
-0.63
-0.64
-0.63
-0.63
-0.63
-0.63
-0.63
-0.62
-0.67
-0.69
-0.68
-0.69
-0.72
-0.71
-0.71
-0.71
-0.72
-0.73
-0.77
-0.79
-0.78
-0.81
-0.81
-0.84
-0.84
-0.85
-0.93
-0.95
-0.97
-0.99
-0.99
-1.00
-1.01
-1.00
-1.04
-1.07
-1.10
-1.13
-1.11
-1.09
-1.03
-0.97
-0.91
-0.89
-0.86
-0.78
-0.70
-0.62
-0.54
-0.49
-0.44
-0.40
-0.39
-0.43
-0.41
-0.39
-0.40
-0.38
-0.36
-0.35
-0.36
-0.36
-0.37
-0.39
-0.39
-0.40
-0.39
-0.37
-0.38
-0.39
-0.41
-0.42
-0.44
-0.41
-0.43
-0.43
-0.42
-0.42
-0.46
-0.45
-0.44
-0.45
-0.46
-0.45
-0.43
-0.44
-0.43
-0.42
-0.41
-0.42
-0.45
-0.29
0.10
0.54
0.75
0.35
-0.78
-1.66
-1.93
-1.84
-1.63
-1.28
-0.83
-0.48
-0.33
-0.28
-0.29
-0.33
-0.33
-0.32
-0.30
-0.27
-0.25
-0.25
-0.30
-0.32
-0.36
-0.38
-0.40
-0.39
-0.39
-0.40
-0.40
-0.40
-0.43
-0.46
-0.49
-0.50
-0.51
-0.52
-0.52
-0.55
-0.57
-0.60
-0.63
-0.67
-0.70
-0.70
-0.70
-0.73
-0.75
-0.80
-0.79
-0.81
-0.78
-0.76
-0.74
-0.68
-0.63
-0.58
-0.54
-0.49
-0.42
-0.38
-0.33
-0.28
-0.25
-0.24
-0.23
-0.19
-0.23
-0.24
-0.27
-0.29
-0.31
-0.31
-0.30
-0.31
-0.31
-0.31
-0.34
-0.35
-0.37
-0.35
-0.35
-0.33
-0.33
-0.35
-0.36
-0.37
-0.33
-0.26
-0.24
-0.21
-0.20
-0.21
-0.21
-0.22
-0.24
-0.24
-0.25
-0.22
-0.20
-0.17
-0.17
-0.16
-0.14
-0.12
-0.05
0.03
0.13
0.16
0.14
0.11
0.06
0.03
-0.05
-0.11
-0.20
-0.21
-0.24
-0.26
-0.27
-0.27
-0.30
-0.30
-0.29
-0.23
-0.10
-0.01
0.26
0.63
0.86
1.05
0.86
-0.15
-1.17
-1.62
-1.59
-1.31
-0.94
-0.64
-0.49
-0.42
-0.37
-0.35
-0.33
-0.30
-0.31
-0.31
-0.32
-0.34
-0.35
-0.34
-0.33
-0.32
-0.31
-0.33
-0.35
-0.33
-0.36
-0.37
-0.38
-0.40
-0.38
-0.40
-0.40
-0.42
-0.47
-0.49
-0.54
-0.55
-0.56
-0.57
-0.56
-0.60
-0.64
-0.70
-0.70
-0.72
-0.74
-0.75
-0.74
-0.75
-0.75
-0.80
-0.79
-0.78
-0.76
-0.71
-0.65
-0.61
-0.52
-0.45
-0.39
-0.35
-0.29
-0.24
-0.20
-0.14
-0.10
-0.09
-0.09
-0.07
-0.09
-0.08
-0.08
-0.07
-0.06
-0.07
-0.07
-0.07
-0.08
-0.10
-0.10
-0.09
-0.10
-0.10
-0.09
-0.09
-0.12
-0.14
-0.12
-0.14
-0.15
-0.14
-0.12
-0.11
-0.13
-0.15
-0.14
-0.18
-0.18
-0.18
-0.17
-0.15
-0.16
-0.16
-0.16
-0.18
-0.18
-0.19
-0.17
-0.17
-0.16
-0.16
-0.15
-0.18
-0.21
-0.22
-0.20
-0.19
-0.19
-0.19
-0.18
-0.18
-0.19
-0.21
-0.22
-0.21
-0.19
-0.17
-0.17
-0.19
-0.21
-0.22
-0.23
-0.22
-0.22
-0.22
-0.19
-0.19
-0.19
-0.20
-0.20
-0.22
-0.22
-0.23
-0.21
-0.21
-0.22
-0.23
-0.20
-0.22
-0.23
-0.23
-0.23
-0.23
-0.21
-0.20
-0.21
-0.20
-0.19
-0.17
-0.12
-0.09
-0.10
-0.07
-0.05
-0.01
-0.03
-0.00
0.01
-0.04
-0.06
-0.10
-0.15
-0.19
-0.22
-0.23
-0.29
-0.30
-0.26
-0.27
-0.19
-0.13
-0.02
0.28
0.65
0.90
1.11
0.90
-0.06
-1.11
-1.55
-1.55
-1.29
-0.94
-0.65
-0.47
-0.38
-0.34
-0.29
-0.30
-0.28
-0.29
-0.33
-0.31
-0.33
-0.33
-0.34
-0.32
-0.31
-0.31
-0.33
-0.36
-0.37
-0.39
-0.37
-0.38
-0.36
-0.35
-0.36
-0.39
-0.42
-0.45
-0.48
-0.51
-0.52
-0.52
-0.53
-0.56
-0.56
-0.59
-0.62
-0.65
-0.67
-0.67
-0.67
-0.68
-0.69
-0.73
-0.73
-0.75
-0.77
-0.78
-0.74
-0.73
-0.72
-0.69
-0.65
-0.62
-0.57
-0.50
-0.45
-0.38
-0.30
-0.26
-0.22
-0.20
-0.17
-0.14
-0.13
-0.11
-0.09
-0.08
-0.09
-0.08
-0.05
-0.08
-0.10
-0.09
-0.10
-0.08
-0.06
-0.08
-0.09
-0.11
-0.13
-0.12
-0.12
-0.11
-0.12
-0.10
-0.08
-0.11
-0.12
-0.16
-0.14
-0.15
-0.15
-0.13
-0.16
-0.16
-0.16
-0.18
-0.15
-0.18
-0.17
-0.15
-0.13
-0.11
-0.12
-0.13
-0.12
-0.12
-0.16
-0.17
-0.16
-0.13
-0.17
-0.20
-0.17
-0.12
-0.14
-0.17
-0.20
-0.16
-0.11
-0.11
-0.05
-0.03
-0.06
-0.07
-0.07
-0.06
-0.03
-0.00
-0.03
-0.06
-0.06
-0.05
-0.06
-0.09
-0.04
-0.04
-0.03
0.02
0.03
0.05
0.05
0.04
0.06
0.05
0.05
0.08
0.08
0.04
0.01
-0.01
-0.05
-0.21
-0.35
-0.38
-0.36
-0.34
-0.32
-0.31
-0.34
-0.30
-0.16
0.25
0.72
1.00
1.17
0.80
-0.30
-1.26
-1.67
-1.67
-1.49
-1.15
-0.77
-0.55
-0.51
-0.48
-0.47
-0.44
-0.43
-0.42
-0.42
-0.41
-0.41
-0.44
-0.43
-0.44
-0.49
-0.48
-0.46
-0.44
-0.45
-0.47
-0.47
-0.53
-0.55
-0.54
-0.51
-0.52
-0.55
-0.59
-0.60
-0.64
-0.68
-0.70
-0.74
-0.77
-0.80
-0.84
-0.89
-0.89
-0.91
-0.97
-1.00
-1.01
-1.04
-1.07
-1.08
-1.09
-1.10
-1.10
-1.09
-1.09
-1.05
-1.00
-0.92
-0.84
-0.77
-0.73
-0.68
-0.63
-0.59
-0.53
-0.50
-0.44
-0.38
-0.35
-0.32
-0.33
-0.32
-0.31
-0.31
-0.27
-0.25
-0.23
-0.23
-0.27
-0.26
-0.26
-0.26
-0.27
-0.29
-0.28
-0.27
-0.25
-0.25
-0.27
-0.31
-0.30
-0.30
-0.28
-0.28
-0.30
-0.29
-0.29
-0.32
-0.34
-0.33
-0.33
-0.31
-0.29
-0.28
-0.30
-0.32
-0.35
-0.33
-0.33
-0.33
-0.32
-0.31
-0.31
-0.31
-0.33
-0.34
-0.34
-0.33
-0.33
-0.31
-0.31
-0.30
-0.30
-0.33
-0.37
-0.35
-0.36
-0.32
-0.30
-0.30
-0.31
-0.31
-0.34
-0.35
-0.35
-0.33
-0.32
-0.30
-0.29
-0.28
-0.24
-0.23
-0.23
-0.20
-0.17
-0.14
-0.13
-0.14
-0.12
-0.16
-0.19
-0.23
-0.25
-0.29
-0.32
-0.31
-0.31
-0.34
-0.35
-0.36
-0.35
-0.31
-0.20
-0.02
0.31
0.69
0.92
0.97
0.45
-0.66
-1.47
-1.70
-1.61
-1.38
-1.05
-0.77
-0.59
-0.52
-0.49
-0.48
-0.46
-0.43
-0.42
-0.42
-0.41
-0.45
-0.43
-0.44
-0.44
-0.45
-0.47
-0.44
-0.46
-0.45
-0.48
-0.53
-0.54
-0.51
-0.53
-0.52
-0.52
-0.56
-0.57
-0.62
-0.67
-0.70
-0.73
-0.74
-0.77
-0.78
-0.81
-0.87
-0.93
-0.96
-0.99
-1.01
-1.02
-1.03
-1.07
-1.08
-1.10
-1.12
-1.11
-1.12
-1.08
-1.05
-0.98
-0.91
-0.85
-0.80
-0.76
-0.70
-0.61
-0.57
-0.52
-0.49
-0.44
-0.41
-0.40
-0.39
-0.38
-0.38
-0.34
-0.32
-0.32
-0.30
-0.30
-0.31
-0.32
-0.31
-0.32
-0.31
-0.30
-0.30
-0.30
-0.30
-0.30
-0.32
-0.31
-0.32
-0.33
-0.32
-0.32
-0.32
-0.34
-0.34
-0.35
-0.35
-0.35
-0.33
-0.31
-0.31
-0.30
-0.32
-0.30
-0.21
-0.15
-0.15
-0.15
-0.13
-0.13
-0.14
-0.12
-0.14
-0.13
-0.14
-0.13
-0.12
-0.11
-0.12
-0.12
-0.13
-0.15
-0.15
-0.13
-0.12
-0.12
-0.10
-0.11
-0.13
-0.13
-0.16
-0.16
-0.15
-0.14
-0.11
-0.11
-0.11
-0.09
-0.09
-0.09
-0.06
-0.04
-0.01
0.03
0.05
0.06
0.05
0.06
0.02
0.03
0.02
0.00
0.01
-0.02
-0.08
-0.10
-0.13
-0.16
-0.18
-0.18
-0.16
-0.13
-0.06
0.04
0.20
0.56
0.84
1.01
1.06
0.60
-0.48
-1.30
-1.54
-1.43
-1.09
-0.77
-0.50
-0.35
-0.26
-0.22
-0.21
-0.19
-0.19
-0.19
-0.22
-0.21
-0.20
-0.22
-0.20
-0.19
-0.20
-0.21
-0.22
-0.26
-0.27
-0.28
-0.27
-0.27
-0.27
-0.28
-0.31
-0.32
-0.36
-0.39
-0.40
-0.42
-0.42
-0.45
-0.47
-0.50
-0.58
-0.63
-0.65
-0.68
-0.69
-0.72
-0.74
-0.77
-0.81
-0.83
-0.87
-0.90
-0.92
-0.93
-0.89
-0.89
-0.86
-0.82
-0.78
-0.74
-0.67
-0.61
-0.51
-0.43
-0.36
-0.31
-0.25
-0.20
-0.18
-0.18
-0.13
-0.09
-0.09
-0.07
-0.07
-0.08
-0.09
-0.10
-0.09
-0.09
-0.10
-0.09
-0.09
-0.08
-0.08
-0.10
-0.13
-0.14
-0.13
-0.12
-0.11
-0.11
-0.12
-0.12
-0.15
-0.15
-0.17
-0.16
-0.13
-0.15
-0.13
-0.15
-0.15
-0.17
-0.17
-0.18
-0.18
-0.17
-0.18
-0.16
-0.14
-0.15
-0.16
-0.19
-0.20
-0.20
-0.20
-0.16
-0.16
-0.17
-0.16
-0.18
-0.19
-0.19
-0.18
-0.16
-0.16
-0.17
-0.17
-0.16
-0.18
-0.18
-0.18
-0.17
-0.16
-0.14
-0.15
-0.14
-0.14
-0.15
-0.15
-0.15
-0.10
-0.06
-0.01
0.02
0.02
0.02
-0.00
-0.03
-0.02
-0.00
-0.05
-0.07
-0.10
-0.15
-0.18
-0.19
-0.21
-0.23
-0.22
-0.21
-0.17
-0.12
-0.05
0.10
0.44
0.79
0.99
1.14
0.84
-0.18
-1.16
-1.52
-1.49
-1.21
-0.86
-0.56
-0.39
-0.31
-0.26
-0.24
-0.24
-0.22
-0.25
-0.26
-0.27
-0.25
-0.25
-0.22
-0.23
-0.23
-0.25
-0.26
-0.27
-0.29
-0.30
-0.29
-0.30
-0.29
-0.32
-0.32
-0.37
-0.39
-0.39
-0.39
-0.41
-0.42
-0.46
-0.46
-0.50
-0.54
-0.61
-0.63
-0.65
-0.67
-0.66
-0.70
-0.74
-0.78
-0.82
-0.85
-0.86
-0.87
-0.85
-0.83
-0.81
-0.75
-0.74
-0.71
-0.65
-0.57
-0.46
-0.41
-0.32
-0.25
-0.19
-0.16
-0.13
-0.12
-0.10
-0.08
-0.05
-0.04
-0.04
-0.03
-0.06
-0.07
-0.07
-0.09
-0.07
-0.07
-0.05
-0.06
-0.05
-0.06
-0.08
-0.09
-0.10
-0.09
-0.06
-0.06
-0.08
-0.11
-0.11
-0.13
-0.13
-0.14
-0.13
-0.13
-0.12
-0.12
-0.12
-0.15
-0.16
-0.15
-0.14
-0.14
-0.13
-0.13
-0.11
-0.12
-0.13
-0.16
-0.17
-0.15
-0.17
-0.15
-0.13
-0.14
-0.14
-0.16
-0.18
-0.17
-0.16
-0.15
-0.14
-0.14
-0.15
-0.14
-0.15
-0.16
-0.16
-0.16
-0.16
-0.13
-0.10
-0.12
-0.13
-0.10
-0.07
-0.02
-0.05
-0.03
-0.00
0.01
0.02
0.02
0.03
-0.02
-0.06
-0.08
-0.11
-0.14
-0.16
-0.18
-0.20
-0.21
-0.20
-0.20
-0.11
-0.04
0.11
0.45
0.89
1.16
1.29
0.87
-0.23
-1.13
-1.45
-1.36
-1.17
-0.87
-0.58
-0.41
-0.30
-0.25
-0.22
-0.21
-0.19
-0.20
-0.20
-0.22
-0.21
-0.24
-0.29
-0.28
-0.27
-0.22
-0.23
-0.26
-0.28
-0.31
-0.31
-0.35
-0.35
-0.36
-0.37
-0.42
-0.42
-0.46
-0.52
-0.56
-0.59
-0.59
-0.62
-0.66
-0.71
-0.77
-0.81
-0.86
-0.91
-0.90
-0.93
-0.95
-1.03
-1.06
-1.05
-1.05
-1.05
-1.06
-1.01
-0.94
-0.88
-0.79
-0.70
-0.65
-0.62
-0.58
-0.53
-0.46
-0.43
-0.41
-0.39
-0.35
-0.38
-0.41
-0.38
-0.40
-0.38
-0.36
-0.33
-0.34
-0.34
-0.36
-0.38
-0.40
-0.38
-0.38
-0.40
-0.37
-0.38
-0.39
-0.40
-0.40
-0.43
-0.43
-0.42
-0.43
-0.40
-0.41
-0.41
-0.43
-0.45
-0.42
-0.43
-0.39
-0.32
-0.07
0.32
0.63
0.84
0.79
-0.01
-1.23
-1.84
-1.81
-1.47
-1.03
-0.72
-0.57
-0.48
-0.45
-0.44
-0.41
-0.42
-0.42
-0.40
-0.36
-0.38
-0.38
-0.40
-0.43
-0.43
-0.46
-0.50
-0.50
-0.51
-0.54
-0.58
-0.58
-0.57
-0.60
-0.60
-0.58
-0.61
-0.63
-0.67
-0.70
-0.73
-0.75
-0.79
-0.81
-0.83
-0.84
-0.90
-0.94
-0.99
-1.03
-1.03
-1.09
-1.06
-1.02
-0.97
-0.91
-0.84
-0.80
-0.70
-0.55
-0.45
-0.36
-0.37
-0.35
-0.33
-0.31
-0.29
-0.28
-0.29
-0.28
-0.27
-0.29
-0.32
-0.36
-0.38
-0.41
-0.44
-0.44
-0.44
-0.42
-0.45
-0.47
-0.48
-0.51
-0.53
-0.52
-0.54
-0.56
-0.55
-0.56
-0.59
-0.62
-0.64
-0.64
-0.67
-0.67
-0.66
-0.65
-0.61
-0.60
-0.54
-0.49
-0.49
-0.47
-0.46
-0.43
-0.41
-0.41
-0.37
-0.29
-0.12
0.24
0.60
0.79
0.86
0.29
-0.84
-1.57
-1.72
-1.55
-1.21
-0.83
-0.60
-0.44
-0.36
-0.35
-0.35
-0.37
-0.39
-0.39
-0.41
-0.41
-0.43
-0.43
-0.44
-0.46
-0.46
-0.50
-0.52
-0.52
-0.52
-0.50
-0.46
-0.42
-0.38
-0.37
-0.42
-0.45
-0.45
-0.46
-0.46
-0.47
-0.50
-0.54
-0.56
-0.57
-0.58
-0.60
-0.62
-0.66
-0.71
-0.71
-0.75
-0.78
-0.83
-0.86
-0.85
-0.86
-0.80
-0.77
-0.74
-0.70
-0.66
-0.62
-0.55
-0.53
-0.48
-0.42
-0.38
-0.36
-0.37
-0.37
-0.38
-0.35
-0.34
-0.31
-0.25
-0.21
-0.18
-0.21
-0.22
-0.25
-0.26
-0.25
-0.27
-0.26
-0.27
-0.26
-0.25
-0.24
-0.25
-0.25
-0.21
-0.23
-0.24
-0.23
-0.19
-0.17
-0.08
0.11
0.27
0.47
0.61
0.16
-0.88
-1.66
-1.86
-1.56
-1.14
-0.83
-0.69
-0.58
-0.55
-0.53
-0.51
-0.51
-0.49
-0.47
-0.41
-0.37
-0.34
-0.33
-0.31
-0.31
-0.33
-0.33
-0.35
-0.39
-0.40
-0.39
-0.40
-0.40
-0.42
-0.44
-0.49
-0.50
-0.54
-0.57
-0.61
-0.65
-0.67
-0.69
-0.73
-0.76
-0.80
-0.84
-0.87
-0.92
-0.94
-0.95
-0.98
-0.99
-1.00
-1.03
-1.01
-1.00
-0.95
-0.89
-0.80
-0.72
-0.64
-0.56
-0.48
-0.36
-0.33
-0.31
-0.28
-0.27
-0.27
-0.27
-0.29
-0.30
-0.28
-0.27
-0.26
-0.24
-0.21
-0.17
-0.10
0.03
0.17
0.41
0.67
0.84
0.98
0.54
-0.64
-1.39
-1.52
-1.36
-1.02
-0.70
-0.53
-0.44
-0.37
-0.37
-0.38
-0.42
-0.43
-0.42
-0.41
-0.40
-0.39
-0.39
-0.38
-0.40
-0.40
-0.35
-0.32
-0.29
-0.31
-0.33
-0.33
-0.37
-0.39
-0.42
-0.42
-0.46
-0.48
-0.50
-0.47
-0.48
-0.51
-0.54
-0.58
-0.61
-0.63
-0.65
-0.66
-0.65
-0.67
-0.66
-0.66
-0.65
-0.63
-0.58
-0.55
-0.49
-0.41
-0.36
-0.32
-0.28
-0.27
-0.24
-0.23
-0.21
-0.22
-0.23
-0.20
-0.21
-0.22
-0.22
-0.22
-0.24
-0.26
-0.25
-0.23
-0.23
-0.23
-0.23
-0.26
-0.27
-0.23
-0.24
-0.24
-0.24
-0.18
-0.17
-0.21
-0.27
-0.18
-0.05
0.12
-0.17
-1.10
-1.75
-2.00
-1.99
-1.95
-1.90
-1.87
-1.78
-1.61
-1.41
-1.10
-0.76
-0.56
-0.42
-0.32
-0.25
-0.21
-0.14
-0.12
-0.12
-0.12
-0.13
-0.14
-0.17
-0.13
-0.14
-0.15
-0.16
-0.15
-0.14
-0.18
-0.17
-0.18
-0.20
-0.23
-0.22
-0.23
-0.24
-0.25
-0.27
-0.27
-0.26
-0.28
-0.27
-0.25
-0.24
-0.24
-0.22
-0.19
-0.15
-0.12
-0.08
-0.03
0.05
0.10
0.17
0.21
0.21
0.26
0.29
0.31
0.32
0.30
0.25
0.19
0.13
0.07
0.03
-0.02
-0.08
-0.08
-0.11
-0.13
-0.12
-0.15
-0.13
-0.11
-0.08
-0.09
0.00
0.17
0.35
0.29
-0.59
-1.58
-1.94
-1.96
-1.90
-1.83
-1.82
-1.77
-1.57
-1.40
-1.12
-0.78
-0.52
-0.34
-0.18
-0.12
-0.10
-0.11
-0.07
-0.06
-0.03
-0.04
-0.01
-0.01
-0.02
-0.05
-0.06
-0.06
-0.07
-0.09
-0.12
-0.13
-0.13
-0.12
-0.14
-0.18
-0.20
-0.25
-0.26
-0.27
-0.27
-0.27
-0.27
-0.23
-0.25
-0.26
-0.24
-0.20
-0.21
-0.17
-0.10
-0.01
0.00
0.06
0.10
0.13
0.19
0.22
0.23
0.25
0.25
0.26
0.23
0.23
0.16
0.10
0.02
-0.01
-0.03
-0.06
-0.08
-0.08
-0.08
-0.08
-0.11
-0.10
-0.03
0.06
0.23
0.46
0.68
0.87
1.06
0.96
-0.02
-1.11
-1.47
-1.27
-0.87
-0.54
-0.36
-0.30
-0.25
-0.24
-0.23
-0.27
-0.27
-0.26
-0.26
-0.27
-0.28
-0.27
-0.25
-0.24
-0.23
-0.21
-0.16
-0.16
-0.18
-0.21
-0.28
-0.29
-0.32
-0.36
-0.37
-0.35
-0.35
-0.39
-0.41
-0.43
-0.46
-0.49
-0.47
-0.46
-0.48
-0.47
-0.47
-0.49
-0.49
-0.51
-0.48
-0.46
-0.46
-0.42
-0.39
-0.33
-0.28
-0.28
-0.27
-0.24
-0.22
-0.17
-0.11
-0.09
-0.08
-0.10
-0.11
-0.11
-0.07
-0.06
-0.06
-0.04
-0.06
-0.08
-0.10
-0.13
-0.14
-0.11
-0.13
-0.13
-0.11
-0.06
0.03
0.10
0.24
0.52
0.77
0.92
0.79
-0.14
-1.22
-1.70
-1.63
-1.34
-0.95
-0.61
-0.39
-0.30
-0.25
-0.24
-0.24
-0.25
-0.25
-0.27
-0.28
-0.28
-0.25
-0.23
-0.19
-0.17
-0.16
-0.16
-0.17
-0.15
-0.19
-0.21
-0.25
-0.27
-0.27
-0.30
-0.29
-0.27
-0.28
-0.30
-0.28
-0.26
-0.28
-0.29
-0.30
-0.32
-0.33
-0.33
-0.30
-0.31
-0.31
-0.29
-0.26
-0.28
-0.27
-0.26
-0.20
-0.15
-0.10
-0.07
-0.04
-0.00
0.01
0.00
0.02
0.04
0.05
0.07
0.07
0.09
0.07
0.03
-0.01
-0.00
-0.03
-0.02
0.02
0.08
0.20
0.43
0.76
0.97
0.51
-0.56
-1.33
-1.58
-1.54
-1.39
-1.17
-0.85
-0.54
-0.37
-0.27
-0.22
-0.18
-0.16
-0.16
-0.18
-0.18
-0.20
-0.24
-0.25
-0.26
-0.24
-0.25
-0.22
-0.23
-0.22
-0.21
-0.20
-0.19
-0.18
-0.20
-0.25
-0.25
-0.30
-0.32
-0.31
-0.32
-0.32
-0.33
-0.32
-0.31
-0.32
-0.30
-0.28
-0.28
-0.28
-0.27
-0.28
-0.23
-0.19
-0.15
-0.11
-0.07
-0.06
-0.03
-0.03
-0.03
-0.01
0.00
-0.03
-0.08
-0.08
-0.10
-0.11
-0.14
-0.15
-0.15
-0.09
-0.08
-0.11
-0.14
-0.16
-0.18
-0.22
-0.25
-0.24
-0.24
-0.25
-0.26
-0.28
-0.30
-0.30
-0.30
-0.30
-0.29
-0.28
-0.29
-0.29
-0.32
-0.32
-0.34
-0.33
-0.32
-0.35
-0.33
-0.34
-0.33
-0.34
-0.36
-0.37
-0.37
-0.39
-0.38
-0.37
-0.36
-0.37
-0.36
-0.35
-0.33
-0.32
-0.31
-0.30
-0.31
-0.32
-0.33
-0.37
-0.37
-0.39
-0.38
-0.39
-0.38
-0.37
-0.36
-0.32
-0.34
-0.31
-0.22
-0.12
0.04
0.32
0.61
0.77
0.77
0.13
-0.86
-1.48
-1.62
-1.53
-1.27
-0.93
-0.71
-0.57
-0.54
-0.51
-0.47
-0.47
-0.46
-0.44
-0.43
-0.44
-0.44
-0.44
-0.42
-0.40
-0.43
-0.45
-0.46
-0.48
-0.47
-0.52
-0.56
-0.57
-0.56
-0.57
-0.53
-0.50
-0.48
-0.48
-0.47
-0.44
-0.41
-0.41
-0.42
-0.39
-0.37
-0.36
-0.35
-0.35
-0.33
-0.31
-0.31
-0.27
-0.24
-0.19
-0.17
-0.13
-0.11
-0.06
-0.01
0.03
0.05
0.13
0.12
0.13
0.15
0.16
0.15
0.18
0.13
0.07
0.01
-0.05
-0.12
-0.17
-0.23
-0.30
-0.30
-0.33
-0.34
-0.31
-0.33
-0.34
-0.32
-0.34
-0.39
-0.41
-0.44
-0.45
-0.44
-0.44
-0.43
-0.44
-0.44
-0.46
-0.48
-0.43
-0.40
-0.20
0.10
0.36
0.60
0.47
-0.45
-1.44
-1.90
-1.76
-1.30
-0.87
-0.60
-0.49
-0.45
-0.47
-0.46
-0.46
-0.48
-0.45
-0.45
-0.45
-0.44
-0.46
-0.46
-0.46
-0.48
-0.46
-0.46
-0.46
-0.48
-0.52
-0.56
-0.62
-0.65
-0.69
-0.70
-0.71
-0.72
-0.76
-0.81
-0.86
-0.88
-0.93
-0.97
-0.98
-1.01
-1.01
-1.03
-1.05
-1.07
-1.09
-1.11
-1.12
-1.13
-1.10
-1.05
-0.99
-0.92
-0.87
-0.80
-0.74
-0.65
-0.58
-0.46
-0.29
-0.17
0.05
0.35
0.67
0.92
0.52
-0.63
-1.28
-1.30
-1.13
-0.86
-0.63
-0.54
-0.48
-0.42
-0.42
-0.41
-0.40
-0.38
-0.36
-0.40
-0.43
-0.40
-0.41
-0.41
-0.42
-0.40
-0.41
-0.43
-0.44
-0.46
-0.49
-0.50
-0.51
-0.52
-0.52
-0.55
-0.59
-0.61
-0.67
-0.69
-0.73
-0.73
-0.71
-0.67
-0.67
-0.64
-0.62
-0.59
-0.60
-0.58
-0.55
-0.49
-0.45
-0.41
-0.37
-0.34
-0.32
-0.31
-0.30
-0.30
-0.29
-0.31
-0.30
-0.32
-0.35
-0.40
-0.40
-0.43
-0.44
-0.44
-0.44
-0.47
-0.47
-0.48
-0.51
-0.49
-0.51
-0.52
-0.52
-0.54
-0.55
-0.57
-0.61
-0.60
-0.61
-0.58
-0.55
-0.54
-0.51
-0.47
-0.40
-0.26
0.00
0.34
0.58
0.68
0.16
-0.84
-1.51
-1.67
-1.54
-1.24
-0.92
-0.71
-0.59
-0.54
-0.50
-0.49
-0.49
-0.49
-0.50
-0.51
-0.50
-0.52
-0.50
-0.49
-0.52
-0.51
-0.52
-0.55
-0.59
-0.59
-0.62
-0.62
-0.63
-0.66
-0.70
-0.74
-0.77
-0.81
-0.82
-0.86
-0.83
-0.79
-0.73
-0.67
-0.60
-0.56
-0.55
-0.56
-0.52
-0.49
-0.46
-0.44
-0.43
-0.40
-0.38
-0.34
-0.28
-0.26
-0.21
-0.17
-0.14
-0.12
-0.13
-0.13
-0.14
-0.17
-0.18
-0.20
-0.22
-0.26
-0.28
-0.35
-0.37
-0.39
-0.42
-0.44
-0.45
-0.43
-0.47
-0.48
-0.52
-0.57
-0.58
-0.60
-0.61
-0.56
-0.49
-0.30
0.01
0.30
0.55
0.46
-0.46
-1.40
-1.76
-1.61
-1.22
-0.83
-0.66
-0.58
-0.50
-0.51
-0.49
-0.48
-0.47
-0.49
-0.51
-0.51
-0.54
-0.55
-0.54
-0.54
-0.51
-0.55
-0.57
-0.57
-0.59
-0.62
-0.65
-0.66
-0.68
-0.70
-0.70
-0.71
-0.73
-0.77
-0.79
-0.80
-0.82
-0.85
-0.87
-0.90
-0.93
-0.97
-1.01
-1.02
-0.99
-0.92
-0.78
-0.69
-0.62
-0.55
-0.50
-0.45
-0.40
-0.35
-0.33
-0.28
-0.25
-0.24
-0.27
-0.27
-0.30
-0.32
-0.33
-0.34
-0.31
-0.27
-0.16
0.02
0.36
0.63
0.84
1.05
0.63
-0.57
-1.42
-1.56
-1.36
-1.08
-0.80
-0.65
-0.54
-0.48
-0.49
-0.46
-0.45
-0.47
-0.50
-0.50
-0.53
-0.60
-0.65
-0.63
-0.59
-0.52
-0.47
-0.47
-0.44
-0.42
-0.46
-0.46
-0.48
-0.45
-0.48
-0.49
-0.54
-0.56
-0.57
-0.58
-0.57
-0.57
-0.60
-0.59
-0.61
-0.64
-0.65
-0.63
-0.61
-0.61
-0.55
-0.49
-0.44
-0.38
-0.33
-0.31
-0.30
-0.26
-0.24
-0.20
-0.19
-0.19
-0.22
-0.26
-0.26
-0.29
-0.26
-0.17
-0.01
0.21
0.50
0.73
0.97
1.15
0.63
-0.50
-1.14
-1.15
-0.90
-0.64
-0.49
-0.41
-0.37
-0.40
-0.35
-0.32
-0.33
-0.32
-0.33
-0.35
-0.36
-0.39
-0.42
-0.43
-0.43
-0.44
-0.43
-0.44
-0.45
-0.46
-0.53
-0.55
-0.55
-0.59
-0.61
-0.61
-0.64
-0.67
-0.68
-0.72
-0.74
-0.69
-0.60
-0.58
-0.58
-0.57
-0.53
-0.51
-0.54
-0.58
-0.56
-0.55
-0.47
-0.39
-0.36
-0.36
-0.32
-0.27
-0.28
-0.29
-0.27
-0.26
-0.28
-0.32
-0.38
-0.49
-0.52
-0.53
-0.54
-0.53
-0.53
-0.54
-0.57
-0.57
-0.61
-0.62
-0.62
-0.64
-0.67
-0.65
-0.64
-0.64
-0.72
-0.74
-0.71
-0.67
-0.61
-0.60
-0.55
-0.51
-0.49
-0.53
-0.58
-0.54
-0.56
-0.54
-0.45
-0.29
0.08
0.47
0.70
0.69
0.23
-0.84
-1.67
-1.93
-1.81
-1.59
-1.22
-0.96
-0.87
-0.80
-0.75
-0.75
-0.72
-0.69
-0.67
-0.71
-0.73
-0.70
-0.71
-0.74
-0.77
-0.76
-0.76
-0.78
-0.79
-0.82
-0.84
-0.86
-0.84
-0.79
-0.69
-0.67
-0.70
-0.66
-0.63
-0.65
-0.67
-0.71
-0.69
-0.69
-0.70
-0.68
-0.65
-0.68
-0.69
-0.70
-0.69
-0.68
-0.67
-0.61
-0.55
-0.54
-0.55
-0.54
-0.52
-0.47
-0.47
-0.42
-0.39
-0.43
-0.42
-0.43
-0.44
-0.47
-0.48
-0.52
-0.53
-0.52
-0.55
-0.61
-0.63
-0.66
-0.71
-0.71
-0.70
-0.67
-0.62
-0.57
-0.54
-0.52
-0.51
-0.53
-0.59
-0.57
-0.58
-0.56
-0.56
-0.58
-0.59
-0.62
-0.63
-0.64
-0.64
-0.63
-0.61
-0.61
-0.61
-0.61
-0.62
-0.64
-0.63
-0.66
-0.63
-0.60
-0.58
-0.53
-0.48
-0.38
-0.07
0.30
0.53
0.57
0.13
-0.90
-1.67
-1.87
-1.79
-1.57
-1.29
-1.09
-0.90
-0.79
-0.70
-0.63
-0.60
-0.59
-0.55
-0.53
-0.52
-0.52
-0.54
-0.51
-0.53
-0.54
-0.59
-0.58
-0.57
-0.59
-0.60
-0.62
-0.61
-0.62
-0.64
-0.67
-0.68
-0.71
-0.72
-0.75
-0.74
-0.74
-0.76
-0.77
-0.79
-0.78
-0.79
-0.82
-0.81
-0.82
-0.82
-0.82
-0.84
-0.83
-0.84
-0.83
-0.84
-0.83
-0.84
-0.80
-0.80
-0.81
-0.77
-0.70
-0.58
-0.44
-0.34
-0.32
-0.29
-0.29
-0.31
-0.32
-0.31
-0.33
-0.33
-0.31
-0.31
-0.28
-0.21
-0.11
0.05
0.27
0.51
0.66
0.69
0.07
-1.16
-1.84
-1.88
-1.55
-1.12
-0.79
-0.59
-0.47
-0.41
-0.41
-0.43
-0.43
-0.44
-0.44
-0.44
-0.42
-0.39
-0.38
-0.40
-0.41
-0.41
-0.44
-0.45
-0.45
-0.47
-0.47
-0.48
-0.52
-0.55
-0.58
-0.58
-0.63
-0.65
-0.66
-0.65
-0.69
-0.71
-0.76
-0.80
-0.79
-0.80
-0.81
-0.78
-0.77
-0.72
-0.70
-0.67
-0.62
-0.58
-0.51
-0.44
-0.37
-0.32
-0.30
-0.29
-0.31
-0.31
-0.28
-0.31
-0.29
-0.29
-0.30
-0.31
-0.34
-0.35
-0.38
-0.38
-0.37
-0.36
-0.37
-0.36
-0.39
-0.40
-0.41
-0.43
-0.43
-0.42
-0.41
-0.39
-0.41
-0.40
-0.42
-0.41
-0.38
-0.35
-0.30
-0.19
-0.13
-0.08
-0.08
-0.08
-0.14
-0.18
-0.24
-0.28
-0.32
-0.36
-0.42
-0.45
-0.49
-0.49
-0.49
-0.48
-0.44
-0.38
-0.30
-0.15
0.12
0.45
0.63
0.76
0.46
-0.53
-1.47
-1.82
-1.75
-1.45
-1.12
-0.83
-0.69
-0.58
-0.53
-0.51
-0.50
-0.48
-0.50
-0.50
-0.52
-0.53
-0.52
-0.50
-0.52
-0.52
-0.52
-0.55
-0.57
-0.57
-0.58
-0.57
-0.58
-0.58
-0.57
-0.61
-0.64
-0.65
-0.68
-0.69
-0.70
-0.70
-0.71
-0.71
-0.72
-0.74
-0.75
-0.75
-0.77
-0.76
-0.75
-0.75
-0.75
-0.74
-0.75
-0.74
-0.73
-0.68
-0.63
-0.56
-0.51
-0.47
-0.43
-0.39
-0.33
-0.30
-0.28
-0.22
-0.20
-0.19
-0.19
-0.20
-0.21
-0.23
-0.24
-0.23
-0.24
-0.23
-0.24
-0.26
-0.28
-0.30
-0.31
-0.30
-0.31
-0.30
-0.31
-0.31
-0.31
-0.33
-0.35
-0.35
-0.35
-0.35
-0.35
-0.34
-0.34
-0.35
-0.37
-0.38
-0.38
-0.38
-0.37
-0.36
-0.36
-0.34
-0.35
-0.38
-0.39
-0.40
-0.40
-0.39
-0.36
-0.36
-0.36
-0.38
-0.38
-0.38
-0.38
-0.36
-0.36
-0.33
-0.33
-0.33
-0.36
-0.37
-0.38
-0.37
-0.36
-0.36
-0.34
-0.34
-0.36
-0.34
-0.38
-0.38
-0.37
-0.38
-0.35
-0.34
-0.35
-0.34
-0.37
-0.36
-0.37
-0.36
-0.35
-0.35
-0.34
-0.33
-0.35
-0.36
-0.37
-0.39
-0.39
-0.37
-0.34
-0.33
-0.33
-0.34
-0.36
-0.38
-0.37
-0.35
-0.31
-0.29
-0.24
-0.21
-0.21
-0.22
-0.20
-0.18
-0.14
-0.09
-0.05
-0.02
-0.02
0.03
0.04
0.04
0.05
0.09
0.09
0.03
0.03
-0.02
-0.07
-0.12
-0.14
-0.17
-0.17
-0.17
-0.13
-0.12
-0.09
-0.01
0.09
0.38
0.74
0.97
1.12
0.98
0.10
-0.89
-1.39
-1.40
-1.19
-0.89
-0.59
-0.40
-0.30
-0.25
-0.22
-0.19
-0.20
-0.23
-0.21
-0.21
-0.24
-0.23
-0.22
-0.23
-0.22
-0.23
-0.25
-0.27
-0.29
-0.29
-0.27
-0.26
-0.28
-0.30
-0.31
-0.32
-0.36
-0.37
-0.37
-0.39
-0.36
-0.38
-0.39
-0.38
-0.43
-0.43
-0.43
-0.43
-0.43
-0.38
-0.39
-0.38
-0.39
-0.41
-0.41
-0.40
-0.37
-0.37
-0.34
-0.32
-0.31
-0.27
-0.26
-0.22
-0.21
-0.16
-0.12
-0.06
-0.00
-0.02
-0.00
0.00
0.02
0.02
0.01
0.03
0.06
0.03
0.02
-0.01
-0.01
-0.02
-0.04
-0.04
-0.05
-0.04
-0.04
-0.04
-0.04
-0.07
-0.10
-0.09
-0.09
-0.08
-0.05
-0.05
-0.06
-0.06
-0.06
-0.08
-0.09
-0.10
-0.08
-0.07
-0.08
-0.08
-0.07
-0.09
-0.11
-0.12
-0.11
-0.09
-0.08
-0.06
-0.06
-0.08
-0.09
-0.10
-0.11
-0.11
-0.11
-0.09
-0.09
-0.08
-0.09
-0.10
-0.10
-0.10
-0.10
-0.08
-0.06
-0.05
-0.05
-0.06
-0.08
-0.10
-0.09
-0.08
-0.08
-0.05
-0.05
-0.05
-0.06
-0.07
-0.07
-0.08
-0.07
-0.05
-0.03
-0.03
-0.00
0.02
0.04
0.04
0.06
0.08
0.11
0.13
0.11
0.11
0.14
0.11
0.06
0.02
0.00
-0.02
-0.04
-0.05
-0.08
-0.07
-0.10
-0.10
-0.08
-0.03
0.06
0.22
0.57
0.93
1.14
1.21
0.69
-0.44
-1.20
-1.39
-1.24
-0.92
-0.61
-0.37
-0.25
-0.17
-0.16
-0.15
-0.12
-0.12
-0.11
-0.12
-0.15
-0.15
-0.17
-0.17
-0.16
-0.15
-0.11
-0.15
-0.16
-0.17
-0.20
-0.22
-0.23
-0.23
-0.24
-0.24
-0.26
-0.29
-0.32
-0.35
-0.38
-0.41
-0.43
-0.44
-0.45
-0.47
-0.49
-0.52
-0.55
-0.57
-0.58
-0.59
-0.59
-0.60
-0.60
-0.62
-0.64
-0.65
-0.62
-0.59
-0.51
-0.44
-0.40
-0.35
-0.31
-0.23
-0.19
-0.15
-0.09
-0.05
-0.01
0.02
0.04
0.02
0.03
0.04
0.04
0.05
0.06
0.07
0.04
0.05
0.02
0.02
0.02
-0.00
0.01
0.05
0.07
0.04
0.05
0.03
-0.01
-0.02
-0.05
-0.01
0.01
0.00
0.00
-0.00
-0.02
-0.05
-0.04
-0.04
-0.04
-0.01
-0.01
-0.02
-0.03
-0.05
-0.06
-0.04
-0.06
-0.05
-0.03
-0.04
-0.04
-0.08
-0.09
-0.07
-0.05
-0.05
-0.07
-0.05
-0.06
-0.06
-0.07
-0.09
-0.09
-0.09
-0.10
-0.08
-0.08
-0.08
-0.10
-0.10
-0.07
-0.07
-0.09
-0.10
-0.09
-0.06
-0.06
-0.08
-0.07
-0.06
-0.03
-0.01
0.03
0.04
0.07
0.09
0.05
0.04
0.04
0.02
-0.02
-0.03
-0.04
-0.07
-0.12
-0.14
-0.17
-0.20
-0.21
-0.21
-0.16
-0.08
-0.01
0.15
0.49
0.86
1.15
1.26
0.75
-0.32
-1.14
-1.43
-1.36
-1.19
-0.87
-0.61
-0.46
-0.39
-0.34
-0.32
-0.35
-0.36
-0.40
-0.41
-0.44
-0.44
-0.46
-0.45
-0.46
-0.46
-0.46
-0.48
-0.48
-0.51
-0.53
-0.54
-0.52
-0.52
-0.54
-0.56
-0.59
-0.62
-0.65
-0.64
-0.67
-0.71
-0.73
-0.74
-0.78
-0.81
-0.82
-0.84
-0.88
-0.90
-0.91
-0.90
-0.88
-0.97
-0.99
-1.00
-0.99
-0.95
-0.89
-0.81
-0.72
-0.66
-0.59
-0.51
-0.44
-0.40
-0.38
-0.39
-0.38
-0.37
-0.37
-0.36
-0.38
-0.38
-0.37
-0.37
-0.39
-0.38
-0.39
-0.40
-0.42
-0.43
-0.42
-0.42
-0.44
-0.43
-0.40
-0.39
-0.40
-0.43
-0.46
-0.45
-0.46
-0.48
-0.45
-0.43
-0.44
-0.45
-0.45
-0.46
-0.45
-0.43
-0.46
-0.46
-0.39
-0.16
0.28
0.72
0.93
0.51
-0.62
-1.48
-1.76
-1.68
-1.45
-1.21
-0.87
-0.61
-0.45
-0.35
-0.29
-0.27
-0.28
-0.33
-0.35
-0.35
-0.36
-0.38
-0.39
-0.39
-0.37
-0.38
-0.38
-0.42
-0.46
-0.49
-0.50
-0.50
-0.53
-0.55
-0.55
-0.56
-0.58
-0.63
-0.65
-0.66
-0.71
-0.73
-0.72
-0.72
-0.77
-0.79
-0.82
-0.86
-0.85
-0.86
-0.87
-0.84
-0.82
-0.77
-0.72
-0.70
-0.64
-0.59
-0.54
-0.53
-0.45
-0.40
-0.37
-0.35
-0.35
-0.39
-0.38
-0.37
-0.37
-0.38
-0.38
-0.40
-0.40
-0.40
-0.43
-0.43
-0.46
-0.46
-0.43
-0.44
-0.42
-0.42
-0.47
-0.48
-0.47
-0.46
-0.46
-0.47
-0.48
-0.46
-0.47
-0.50
-0.51
-0.52
-0.53
-0.51
-0.50
-0.47
-0.48
-0.50
-0.52
-0.52
-0.52
-0.51
-0.51
-0.49
-0.48
-0.47
-0.49
-0.51
-0.52
-0.54
-0.51
-0.51
-0.49
-0.47
-0.47
-0.47
-0.50
-0.52
-0.52
-0.53
-0.51
-0.51
-0.48
-0.50
-0.52
-0.52
-0.51
-0.52
-0.52
-0.52
-0.50
-0.48
-0.48
-0.48
-0.52
-0.51
-0.51
-0.52
-0.51
-0.49
-0.47
-0.48
-0.49
-0.51
-0.49
-0.50
-0.50
-0.49
-0.46
-0.48
-0.47
-0.48
-0.48
-0.48
-0.48
-0.48
-0.46
-0.46
-0.46
-0.45
-0.46
-0.47
-0.48
-0.48
-0.47
-0.44
-0.43
-0.45
-0.44
-0.43
-0.48
-0.48
-0.46
-0.46
-0.43
-0.42
-0.43
-0.44
-0.43
-0.45
-0.46
-0.46
-0.43
-0.42
-0.42
-0.42
-0.41
-0.43
-0.45
-0.44
-0.46
-0.44
-0.41
-0.39
-0.40
-0.42
-0.41
-0.42
-0.44
-0.42
-0.44
-0.41
-0.38
-0.37
-0.38
-0.40
-0.42
-0.42
-0.40
-0.39
-0.34
-0.28
-0.25
-0.26
-0.27
-0.27
-0.25
-0.24
-0.21
-0.18
-0.20
-0.24
-0.27
-0.32
-0.39
-0.42
-0.46
-0.46
-0.46
-0.43
-0.42
-0.41
-0.34
-0.25
0.01
0.42
0.67
0.84
0.82
0.04
-1.06
-1.68
-1.72
-1.51
-1.18
-0.89
-0.71
-0.60
-0.56
-0.57
-0.55
-0.56
-0.55
-0.57
-0.54
-0.54
-0.55
-0.53
-0.54
-0.59
-0.60
-0.59
-0.62
-0.59
-0.61
-0.61
-0.61
-0.63
-0.65
-0.67
-0.67
-0.70
-0.70
-0.70
-0.70
-0.73
-0.76
-0.81
-0.82
-0.83
-0.84
-0.86
-0.87
-0.86
-0.88
-0.88
-0.91
-0.92
-0.93
-0.96
-0.94
-0.92
-0.89
-0.89
-0.90
-0.88
-0.81
-0.75
-0.68
-0.57
-0.48
-0.37
-0.30
-0.24
-0.24
-0.23
-0.25
-0.25
-0.22
-0.19
-0.17
-0.19
-0.23
-0.22
-0.19
-0.21
-0.21
-0.21
-0.21
-0.19
-0.24
-0.25
-0.27
-0.26
-0.26
-0.23
-0.24
-0.23
-0.23
-0.26
-0.27
-0.24
-0.28
-0.26
-0.24
-0.22
-0.22
-0.22
-0.25
-0.26
-0.23
-0.24
-0.25
-0.28
-0.18
0.02
0.26
0.52
0.37
-0.55
-1.35
-1.69
-1.76
-1.71
-1.60
-1.45
-1.23
-1.01
-0.69
-0.30
-0.07
-0.05
-0.02
-0.02
-0.00
-0.04
-0.06
-0.04
-0.05
-0.08
-0.07
-0.08
-0.10
-0.09
-0.12
-0.17
-0.18
-0.19
-0.19
-0.20
-0.20
-0.23
-0.24
-0.27
-0.30
-0.33
-0.35
-0.39
-0.38
-0.38
-0.40
-0.43
-0.45
-0.48
-0.47
-0.46
-0.45
-0.39
-0.35
-0.30
-0.23
-0.19
-0.16
-0.10
-0.04
-0.01
0.05
0.08
0.09
0.09
0.06
0.05
0.04
0.05
0.04
0.03
-0.01
-0.02
-0.03
-0.06
-0.10
-0.11
-0.12
-0.11
-0.10
-0.10
-0.11
-0.14
-0.16
-0.16
-0.18
-0.17
-0.16
-0.15
-0.15
-0.16
-0.18
-0.21
-0.21
-0.21
-0.21
-0.21
-0.19
-0.18
-0.18
-0.20
-0.20
-0.23
-0.22
-0.21
-0.21
-0.19
-0.19
-0.20
-0.20
-0.25
-0.23
-0.22
-0.20
-0.19
-0.19
-0.20
-0.19
-0.22
-0.25
-0.24
-0.23
-0.23
-0.21
-0.20
-0.20
-0.22
-0.22
-0.25
-0.24
-0.24
-0.22
-0.20
-0.19
-0.20
-0.20
-0.24
-0.22
-0.24
-0.23
-0.23
-0.20
-0.20
-0.22
-0.22
-0.24
-0.27
-0.22
-0.24
-0.22
-0.21
-0.21
-0.21
-0.22
-0.21
-0.23
-0.23
-0.21
-0.22
-0.21
-0.19
-0.20
-0.23
-0.23
-0.24
-0.23
-0.25
-0.23
-0.21
-0.21
-0.21
-0.20
-0.21
-0.22
-0.22
-0.25
-0.23
-0.20
-0.20
-0.20
-0.21
-0.21
-0.22
-0.21
-0.23
-0.22
-0.22
-0.20
-0.20
-0.18
-0.19
-0.22
-0.21
-0.20
-0.21
-0.19
-0.18
-0.19
-0.19
-0.20
-0.20
-0.20
-0.20
-0.18
-0.13
-0.09
-0.08
-0.04
-0.07
-0.06
-0.01
-0.01
0.01
0.05
0.08
0.06
-0.00
-0.06
-0.13
-0.17
-0.21
-0.21
-0.22
-0.21
-0.20
-0.23
-0.22
-0.14
-0.02
0.26
0.69
1.00
1.19
1.13
0.32
-0.75
-1.38
-1.50
-1.34
-1.03
-0.71
-0.47
-0.38
-0.32
-0.32
-0.34
-0.33
-0.33
-0.31
-0.30
-0.28
-0.28
-0.30
-0.32
-0.34
-0.34
-0.36
-0.36
-0.36
-0.32
-0.36
-0.36
-0.37
-0.41
-0.42
-0.42
-0.43
-0.44
-0.43
-0.47
-0.49
-0.52
-0.55
-0.57
-0.57
-0.57
-0.58
-0.60
-0.63
-0.63
-0.65
-0.66
-0.69
-0.69
-0.69
-0.67
-0.66
-0.68
-0.67
-0.66
-0.63
-0.57
-0.52
-0.44
-0.34
-0.24
-0.15
-0.10
-0.07
-0.09
-0.10
-0.10
-0.10
-0.09
-0.09
-0.11
-0.16
-0.18
-0.16
-0.17
-0.17
-0.17
-0.17
-0.17
-0.18
-0.20
-0.21
-0.22
-0.24
-0.24
-0.21
-0.23
-0.22
-0.22
-0.23
-0.25
-0.25
-0.26
-0.28
-0.24
-0.24
-0.22
-0.22
-0.24
-0.24
-0.27
-0.33
-0.34
-0.17
0.09
0.41
0.48
-0.30
-1.25
-1.68
-1.77
-1.77
-1.70
-1.68
-1.57
-1.40
-1.18
-0.86
-0.49
-0.22
-0.15
-0.13
-0.11
-0.09
-0.09
-0.11
-0.10
-0.10
-0.09
-0.07
-0.06
-0.06
-0.08
-0.07
-0.09
-0.11
-0.12
-0.12
-0.10
-0.12
-0.12
-0.14
-0.19
-0.20
-0.21
-0.21
-0.21
-0.22
-0.23
-0.26
-0.25
-0.27
-0.26
-0.23
-0.22
-0.16
-0.10
-0.05
0.02
0.07
0.11
0.17
0.22
0.26
0.30
0.33
0.31
0.30
0.28
0.27
0.22
0.18
0.16
0.14
0.12
0.07
0.05
0.04
0.02
0.00
-0.02
-0.00
-0.00
-0.02
-0.01
-0.03
-0.03
-0.07
-0.07
-0.07
-0.11
-0.07
-0.04
-0.01
0.04
0.09
0.15
0.23
0.23
0.25
0.22
0.16
0.12
0.03
-0.03
-0.09
-0.13
-0.17
-0.15
-0.16
-0.16
-0.14
-0.11
-0.09
-0.02
0.24
0.69
1.03
1.27
1.17
0.26
-0.85
-1.39
-1.47
-1.25
-0.91
-0.58
-0.37
-0.28
-0.22
-0.21
-0.23
-0.25
-0.25
-0.25
-0.22
-0.19
-0.20
-0.21
-0.22
-0.26
-0.23
-0.23
-0.26
-0.26
-0.27
-0.26
-0.26
-0.30
-0.34
-0.36
-0.37
-0.39
-0.40
-0.42
-0.44
-0.50
-0.55
-0.58
-0.62
-0.67
-0.70
-0.69
-0.69
-0.72
-0.76
-0.79
-0.82
-0.83
-0.81
-0.79
-0.72
-0.67
-0.66
-0.59
-0.55
-0.48
-0.40
-0.32
-0.30
-0.22
-0.16
-0.15
-0.15
-0.15
-0.14
-0.14
-0.12
-0.11
-0.08
-0.10
-0.13
-0.13
-0.17
-0.18
-0.15
-0.12
-0.10
-0.13
-0.14
-0.17
-0.18
-0.20
-0.19
-0.21
-0.22
-0.21
-0.21
-0.23
-0.32
-0.38
-0.42
-0.45
-0.47
-0.45
-0.44
-0.41
-0.40
-0.43
-0.43
-0.42
-0.42
-0.45
-0.46
-0.44
-0.41
-0.43
-0.43
-0.47
-0.47
-0.46
-0.46
-0.45
-0.42
-0.42
-0.43
-0.42
-0.44
-0.47
-0.46
-0.49
-0.45
-0.44
-0.42
-0.42
-0.47
-0.48
-0.45
-0.47
-0.48
-0.46
-0.43
-0.45
-0.44
-0.43
-0.44
-0.45
-0.48
-0.50
-0.45
-0.43
-0.44
-0.47
-0.49
-0.49
-0.47
-0.47
-0.48
-0.45
-0.43
-0.42
-0.44
-0.45
-0.46
-0.47
-0.47
-0.44
-0.43
-0.36
-0.31
-0.30
-0.33
-0.32
-0.29
-0.29
-0.29
-0.23
-0.21
-0.28
-0.31
-0.38
-0.43
-0.47
-0.50
-0.52
-0.52
-0.50
-0.49
-0.47
-0.44
-0.37
-0.21
0.14
0.62
0.94
1.10
0.61
-0.50
-1.43
-1.78
-1.71
-1.54
-1.26
-0.94
-0.73
-0.66
-0.63
-0.62
-0.61
-0.58
-0.60
-0.60
-0.58
-0.57
-0.57
-0.59
-0.60
-0.61
-0.62
-0.62
-0.64
-0.62
-0.62
-0.64
-0.65
-0.68
-0.68
-0.70
-0.72
-0.71
-0.73
-0.75
-0.75
-0.78
-0.81
-0.84
-0.85
-0.86
-0.86
-0.87
-0.90
-0.89
-0.92
-0.94
-0.95
-0.94
-0.95
-0.94
-0.93
-0.92
-0.91
-0.88
-0.80
-0.74
-0.69
-0.63
-0.53
-0.44
-0.35
-0.32
-0.32
-0.36
-0.39
-0.41
-0.40
-0.42
-0.41
-0.42
-0.43
-0.46
-0.49
-0.51
-0.51
-0.51
-0.48
-0.48
-0.49
-0.50
-0.53
-0.55
-0.54
-0.55
-0.56
-0.54
-0.52
-0.54
-0.55
-0.56
-0.58
-0.59
-0.58
-0.59
-0.53
-0.54
-0.56
-0.55
-0.57
-0.59
-0.56
-0.53
-0.53
-0.43
-0.10
0.36
0.73
0.60
-0.41
-1.51
-1.97
-1.99
-1.80
-1.50
-1.06
-0.69
-0.50
-0.41
-0.43
-0.44
-0.42
-0.42
-0.42
-0.44
-0.44
-0.45
-0.51
-0.51
-0.51
-0.54
-0.54
-0.56
-0.57
-0.59
-0.63
-0.64
-0.65
-0.69
-0.68
-0.68
-0.67
-0.70
-0.73
-0.78
-0.82
-0.85
-0.89
-0.91
-0.89
-0.92
-0.94
-0.96
-0.99
-1.02
-1.01
-1.01
-0.96
-0.91
-0.89
-0.83
-0.80
-0.75
-0.68
-0.62
-0.59
-0.50
-0.45
-0.42
-0.40
-0.41
-0.41
-0.41
-0.41
-0.42
-0.41
-0.40
-0.40
-0.43
-0.43
-0.45
-0.46
-0.46
-0.46
-0.44
-0.41
-0.43
-0.43
-0.46
-0.50
-0.50
-0.48
-0.46
-0.47
-0.47
-0.48
-0.48
-0.49
-0.50
-0.52
-0.51
-0.48
-0.47
-0.48
-0.47
-0.48
-0.49
-0.53
-0.53
-0.52
-0.50
-0.49
-0.47
-0.47
-0.45
-0.35
-0.30
-0.32
-0.31
-0.31
-0.27
-0.27
-0.25
-0.28
-0.29
-0.30
-0.32
-0.30
-0.27
-0.25
-0.22
-0.15
-0.10
-0.03
0.03
0.05
0.08
0.08
0.05
0.01
-0.06
-0.12
-0.17
-0.23
-0.29
-0.31
-0.34
-0.33
-0.33
-0.31
-0.32
-0.32
-0.22
-0.16
0.09
0.52
0.87
1.03
1.08
0.30
-0.85
-1.48
-1.64
-1.40
-1.04
-0.74
-0.54
-0.43
-0.40
-0.39
-0.37
-0.35
-0.36
-0.34
-0.33
-0.37
-0.36
-0.39
-0.41
-0.41
-0.40
-0.40
-0.39
-0.41
-0.42
-0.44
-0.46
-0.48
-0.50
-0.50
-0.50
-0.52
-0.55
-0.57
-0.60
-0.65
-0.66
-0.69
-0.73
-0.74
-0.74
-0.75
-0.79
-0.84
-0.85
-0.87
-0.88
-0.89
-0.89
-0.88
-0.91
-0.91
-0.90
-0.90
-0.86
-0.85
-0.76
-0.68
-0.60
-0.53
-0.47
-0.42
-0.38
-0.32
-0.27
-0.23
-0.21
-0.18
-0.15
-0.16
-0.18
-0.18
-0.18
-0.18
-0.18
-0.15
-0.15
-0.13
-0.15
-0.18
-0.18
-0.18
-0.17
-0.18
-0.16
-0.16
-0.17
-0.19
-0.21
-0.21
-0.20
-0.22
-0.20
-0.22
-0.21
-0.21
-0.23
-0.24
-0.24
-0.25
-0.24
-0.22
-0.21
-0.20
-0.22
-0.24
-0.26
-0.25
-0.25
-0.24
-0.24
-0.23
-0.22
-0.22
-0.24
-0.25
-0.23
-0.23
-0.22
-0.21
-0.20
-0.19
-0.22
-0.24
-0.26
-0.23
-0.24
-0.25
-0.25
-0.23
-0.24
-0.24
-0.25
-0.26
-0.24
-0.24
-0.23
-0.24
-0.22
-0.22
-0.21
-0.25
-0.27
-0.27
-0.26
-0.25
-0.24
-0.25
-0.23
-0.23
-0.26
-0.26
-0.26
-0.27
-0.26
-0.23
-0.21
-0.17
-0.12
-0.15
-0.12
-0.11
-0.06
-0.02
0.02
0.06
0.07
0.02
-0.07
-0.11
-0.18
-0.23
-0.25
-0.26
-0.26
-0.31
-0.29
-0.27
-0.29
-0.24
-0.14
0.06
0.47
0.83
1.03
1.13
0.55
-0.64
-1.42
-1.64
-1.53
-1.17
-0.79
-0.59
-0.46
-0.43
-0.43
-0.44
-0.42
-0.41
-0.38
-0.39
-0.38
-0.39
-0.41
-0.43
-0.46
-0.45
-0.46
-0.44
-0.45
-0.46
-0.47
-0.52
-0.53
-0.53
-0.55
-0.53
-0.54
-0.57
-0.61
-0.62
-0.66
-0.69
-0.73
-0.76
-0.80
-0.77
-0.81
-0.82
-0.85
-0.91
-0.93
-0.94
-0.97
-0.98
-0.97
-0.98
-0.97
-0.92
-0.88
-0.85
-0.80
-0.71
-0.64
-0.54
-0.48
-0.41
-0.42
-0.41
-0.40
-0.37
-0.35
-0.30
-0.30
-0.32
-0.28
-0.31
-0.29
-0.32
-0.31
-0.31
-0.31
-0.28
-0.30
-0.29
-0.33
-0.34
-0.34
-0.35
-0.36
-0.33
-0.33
-0.33
-0.32
-0.35
-0.36
-0.36
-0.35
-0.37
-0.34
-0.34
-0.35
-0.35
-0.36
-0.37
-0.36
-0.36
-0.36
-0.31
-0.27
-0.20
0.07
0.50
0.86
1.02
0.39
-0.79
-1.51
-1.57
-1.29
-0.88
-0.52
-0.36
-0.27
-0.21
-0.21
-0.22
-0.22
-0.23
-0.24
-0.27
-0.29
-0.32
-0.35
-0.35
-0.36
-0.38
-0.40
-0.38
-0.40
-0.42
-0.42
-0.42
-0.46
-0.45
-0.45
-0.46
-0.49
-0.53
-0.57
-0.59
-0.60
-0.64
-0.64
-0.66
-0.69
-0.70
-0.76
-0.78
-0.79
-0.81
-0.79
-0.79
-0.79
-0.74
-0.69
-0.64
-0.58
-0.51
-0.45
-0.38
-0.30
-0.27
-0.21
-0.20
-0.16
-0.17
-0.15
-0.17
-0.16
-0.15
-0.16
-0.18
-0.20
-0.22
-0.22
-0.21
-0.23
-0.22
-0.20
-0.20
-0.19
-0.19
-0.24
-0.24
-0.24
-0.21
-0.22
-0.20
-0.21
-0.21
-0.23
-0.25
-0.24
-0.24
-0.24
-0.24
-0.23
-0.22
-0.22
-0.18
-0.15
-0.10
-0.05
0.06
0.11
0.12
0.12
0.03
-0.00
-0.06
-0.12
-0.19
-0.24
-0.28
-0.31
-0.33
-0.33
-0.35
-0.34
-0.31
-0.30
-0.26
-0.21
-0.14
0.10
0.50
0.84
1.07
0.94
-0.08
-1.15
-1.57
-1.59
-1.34
-0.98
-0.70
-0.53
-0.42
-0.36
-0.35
-0.32
-0.31
-0.31
-0.31
-0.33
-0.33
-0.35
-0.36
-0.34
-0.34
-0.35
-0.35
-0.36
-0.37
-0.39
-0.40
-0.41
-0.41
-0.42
-0.43
-0.44
-0.48
-0.51
-0.55
-0.59
-0.60
-0.61
-0.61
-0.64
-0.66
-0.71
-0.75
-0.77
-0.80
-0.80
-0.78
-0.81
-0.80
-0.81
-0.80
-0.78
-0.77
-0.72
-0.67
-0.58
-0.51
-0.44
-0.36
-0.32
-0.26
-0.21
-0.19
-0.13
-0.11
-0.09
-0.09
-0.09
-0.12
-0.12
-0.12
-0.11
-0.08
-0.08
-0.08
-0.12
-0.12
-0.14
-0.12
-0.12
-0.12
-0.12
-0.10
-0.09
-0.11
-0.13
-0.14
-0.14
-0.14
-0.13
-0.12
-0.11
-0.11
-0.15
-0.16
-0.18
-0.17
-0.16
-0.12
-0.10
-0.13
-0.11
-0.14
-0.16
-0.16
-0.17
-0.16
-0.15
-0.14
-0.15
-0.15
-0.14
-0.17
-0.20
-0.20
-0.19
-0.18
-0.15
-0.14
-0.15
-0.16
-0.18
-0.20
-0.19
-0.21
-0.22
-0.22
-0.20
-0.22
-0.23
-0.28
-0.22
-0.22
-0.23
-0.23
-0.23
-0.22
-0.22
-0.24
-0.26
-0.26
-0.27
-0.27
-0.24
-0.28
-0.33
-0.35
-0.40
-0.44
-0.44
-0.42
-0.41
-0.40
-0.39
-0.38
-0.33
-0.30
-0.29
-0.30
-0.31
-0.29
-0.24
-0.20
-0.17
-0.14
-0.19
-0.26
-0.31
-0.35
-0.37
-0.40
-0.39
-0.42
-0.44
-0.45
-0.48
-0.45
-0.38
-0.29
-0.06
0.37
0.76
1.04
1.10
0.42
-0.75
-1.51
-1.72
-1.61
-1.40
-1.08
-0.82
-0.67
-0.62
-0.56
-0.54
-0.55
-0.53
-0.51
-0.53
-0.54
-0.54
-0.54
-0.58
-0.58
-0.59
-0.57
-0.54
-0.57
-0.58
-0.59
-0.61
-0.64
-0.64
-0.64
-0.63
-0.64
-0.68
-0.69
-0.68
-0.73
-0.77
-0.79
-0.83
-0.83
-0.82
-0.84
-0.86
-0.89
-0.94
-0.95
-0.95
-0.97
-0.97
-0.98
-0.98
-0.99
-1.01
-1.03
-0.99
-0.99
-0.94
-0.88
-0.84
-0.79
-0.72
-0.69
-0.67
-0.61
-0.58
-0.53
-0.48
-0.42
-0.42
-0.42
-0.39
-0.38
-0.37
-0.35
-0.35
-0.35
-0.33
-0.31
-0.33
-0.35
-0.35
-0.34
-0.34
-0.33
-0.33
-0.31
-0.30
-0.32
-0.32
-0.34
-0.36
-0.34
-0.34
-0.32
-0.33
-0.31
-0.34
-0.35
-0.35
-0.37
-0.36
-0.36
-0.34
-0.34
-0.35
-0.35
-0.37
-0.39
-0.38
-0.36
-0.34
-0.32
-0.31
-0.33
-0.31
-0.31
-0.33
-0.33
-0.32
-0.33
-0.30
-0.29
-0.28
-0.27
-0.29
-0.31
-0.31
-0.31
-0.32
-0.27
-0.26
-0.25
-0.18
-0.14
-0.16
-0.13
-0.12
-0.13
-0.12
-0.11
-0.11
-0.11
-0.12
-0.11
-0.12
-0.11
-0.06
-0.02
0.01
0.01
0.03
0.04
0.04
0.03
0.03
0.04
0.04
0.00
-0.00
-0.06
-0.09
-0.14
-0.17
-0.19
-0.20
-0.16
-0.14
-0.15
-0.09
-0.03
0.10
0.47
0.85
1.05
1.19
0.80
-0.29
-1.19
-1.53
-1.49
-1.23
-0.85
-0.56
-0.38
-0.28
-0.21
-0.22
-0.22
-0.23
-0.22
-0.23
-0.22
-0.23
-0.22
-0.20
-0.20
-0.22
-0.23
-0.26
-0.24
-0.27
-0.25
-0.26
-0.25
-0.29
-0.32
-0.35
-0.35
-0.39
-0.38
-0.39
-0.43
-0.46
-0.52
-0.55
-0.59
-0.62
-0.63
-0.69
-0.71
-0.73
-0.77
-0.77
-0.84
-0.85
-0.87
-0.91
-0.93
-0.90
-0.88
-0.86
-0.86
-0.83
-0.76
-0.70
-0.64
-0.55
-0.45
-0.38
-0.32
-0.27
-0.25
-0.20
-0.16
-0.13
-0.11
-0.08
-0.06
-0.06
-0.07
-0.08
-0.09
-0.07
-0.07
-0.06
-0.05
-0.05
-0.05
-0.06
-0.10
-0.10
-0.10
-0.10
-0.09
-0.08
-0.08
-0.09
-0.10
-0.12
-0.14
-0.13
-0.13
-0.11
-0.13
-0.12
-0.12
-0.13
-0.16
-0.19
-0.17
-0.17
-0.13
-0.13
-0.13
-0.14
-0.16
-0.17
-0.16
-0.18
-0.17
-0.16
-0.14
-0.15
-0.14
-0.16
-0.17
-0.17
-0.17
-0.16
-0.16
-0.14
-0.13
-0.15
-0.17
-0.16
-0.19
-0.17
-0.17
-0.15
-0.15
-0.17
-0.16
-0.16
-0.16
-0.15
-0.11
-0.06
-0.01
-0.01
0.00
0.03
0.01
-0.02
-0.01
-0.02
-0.05
-0.05
-0.09
-0.11
-0.15
-0.20
-0.20
-0.22
-0.24
-0.21
-0.20
-0.17
-0.09
-0.02
0.23
0.67
0.98
1.17
1.13
0.25
-0.87
-1.45
-1.54
-1.34
-0.99
-0.66
-0.46
-0.34
-0.28
-0.27
-0.28
-0.28
-0.28
-0.28
-0.28
-0.27
-0.26
-0.24
-0.27
-0.29
-0.31
-0.33
-0.32
-0.32
-0.32
-0.30
-0.32
-0.33
-0.33
-0.37
-0.38
-0.41
-0.43
-0.46
-0.47
-0.48
-0.51
-0.56
-0.62
-0.64
-0.67
-0.72
-0.74
-0.75
-0.77
-0.81
-0.83
-0.87
-0.90
-0.92
-0.93
-0.92
-0.89
-0.84
-0.81
-0.75
-0.72
-0.66
-0.57
-0.50
-0.41
-0.33
-0.26
-0.21
-0.19
-0.17
-0.12
-0.10
-0.09
-0.07
-0.06
-0.05
-0.07
-0.07
-0.10
-0.10
-0.08
-0.07
-0.05
-0.05
-0.05
-0.06
-0.09
-0.11
-0.10
-0.10
-0.09
-0.08
-0.06
-0.07
-0.09
-0.09
-0.11
-0.12
-0.12
-0.12
-0.08
-0.08
-0.11
-0.12
-0.13
-0.12
-0.11
-0.12
-0.11
-0.11
-0.11
-0.12
-0.10
-0.12
-0.12
-0.13
-0.16
-0.12
-0.09
-0.09
-0.10
-0.12
-0.12
-0.13
-0.13
-0.10
-0.12
-0.09
-0.08
-0.09
-0.11
-0.13
-0.14
-0.13
-0.12
-0.12
-0.09
-0.09
-0.08
-0.08
-0.07
-0.04
0.00
0.01
0.03
0.08
0.10
0.10
0.05
0.06
0.06
0.05
0.02
-0.02
-0.05
-0.05
-0.09
-0.11
-0.16
-0.15
-0.14
-0.13
-0.09
0.00
0.11
0.40
0.82
1.08
1.27
1.20
0.30
-0.81
-1.34
-1.39
-1.17
-0.83
-0.53
-0.34
-0.24
-0.20
-0.16
-0.15
-0.14
-0.13
-0.14
-0.14
-0.16
-0.15
-0.16
-0.15
-0.13
-0.15
-0.17
-0.17
-0.17
-0.19
-0.20
-0.21
-0.22
-0.21
-0.23
-0.25
-0.27
-0.32
-0.33
-0.37
-0.39
-0.42
-0.43
-0.45
-0.47
-0.51
-0.58
-0.62
-0.61
-0.63
-0.66
-0.66
-0.71
-0.70
-0.75
-0.78
-0.76
-0.76
-0.75
-0.69
-0.60
-0.53
-0.47
-0.41
-0.34
-0.24
-0.20
-0.15
-0.06
-0.01
0.02
0.05
0.06
0.06
0.07
0.07
0.09
0.11
0.11
0.10
0.12
0.12
0.10
0.06
0.06
0.06
0.06
0.08
0.08
0.10
0.08
0.07
0.06
0.03
0.03
0.07
0.10
0.08
0.05
0.04
0.04
0.04
0.03
0.01
0.02
0.02
0.03
0.03
0.00
-0.01
0.00
0.00
0.01
0.02
-0.00
0.01
0.03
0.01
-0.01
-0.03
-0.02
-0.02
-0.02
-0.01
-0.02
-0.02
-0.04
-0.03
-0.04
-0.04
-0.04
-0.01
-0.01
-0.02
-0.04
-0.04
-0.03
-0.04
-0.05
-0.04
-0.02
0.01
-0.01
0.02
0.02
0.02
0.04
0.07
0.10
0.10
0.12
0.09
0.06
0.02
-0.05
-0.07
-0.12
-0.15
-0.16
-0.16
-0.17
-0.18
-0.18
-0.13
-0.04
0.06
0.38
0.81
1.15
1.37
1.00
-0.16
-1.15
-1.59
-1.62
-1.42
-1.08
-0.76
-0.58
-0.48
-0.47
-0.46
-0.47
-0.44
-0.43
-0.40
-0.40
-0.40
-0.39
-0.42
-0.44
-0.46
-0.45
-0.43
-0.44
-0.45
-0.46
-0.45
-0.47
-0.48
-0.50
-0.51
-0.53
-0.54
-0.53
-0.52
-0.58
-0.65
-0.69
-0.71
-0.72
-0.77
-0.78
-0.82
-0.85
-0.87
-0.92
-0.94
-0.98
-1.00
-0.98
-1.00
-1.00
-1.00
-1.01
-0.96
-0.90
-0.88
-0.80
-0.70
-0.64
-0.57
-0.51
-0.48
-0.47
-0.45
-0.39
-0.36
-0.34
-0.31
-0.30
-0.30
-0.28
-0.31
-0.30
-0.29
-0.27
-0.23
-0.24
-0.24
-0.26
-0.28
-0.28
-0.28
-0.28
-0.25
-0.24
-0.27
-0.27
-0.28
-0.30
-0.32
-0.30
-0.32
-0.33
-0.32
-0.30
-0.29
-0.31
-0.35
-0.36
-0.36
-0.34
-0.34
-0.35
-0.32
-0.33
-0.34
-0.35
-0.37
-0.39
-0.35
-0.35
-0.35
-0.34
-0.35
-0.37
-0.41
-0.39
-0.38
-0.39
-0.36
-0.37
-0.35
-0.37
-0.38
-0.40
-0.42
-0.42
-0.38
-0.37
-0.37
-0.39
-0.37
-0.39
-0.40
-0.39
-0.35
-0.30
-0.25
-0.24
-0.24
-0.23
-0.22
-0.24
-0.26
-0.25
-0.26
-0.28
-0.30
-0.33
-0.36
-0.43
-0.45
-0.47
-0.47
-0.47
-0.43
-0.40
-0.34
-0.27
-0.15
0.21
0.60
0.80
0.94
0.43
-0.71
-1.55
-1.80
-1.70
-1.49
-1.13
-0.84
-0.67
-0.58
-0.51
-0.51
-0.52
-0.52
-0.52
-0.53
-0.53
-0.54
-0.53
-0.52
-0.53
-0.53
-0.55
-0.55
-0.55
-0.57
-0.54
-0.56
-0.57
-0.57
-0.59
-0.63
-0.65
-0.67
-0.69
-0.71
-0.69
-0.74
-0.76
-0.81
-0.86
-0.91
-0.93
-0.96
-0.98
-1.01
-1.02
-1.06
-1.09
-1.13
-1.16
-1.16
-1.17
-1.19
-1.15
-1.11
-1.06
-1.02
-0.98
-0.92
-0.82
-0.75
-0.70
-0.61
-0.56
-0.49
-0.48
-0.45
-0.43
-0.41
-0.40
-0.38
-0.35
-0.33
-0.32
-0.33
-0.33
-0.35
-0.35
-0.35
-0.33
-0.30
-0.30
-0.31
-0.32
-0.34
-0.34
-0.35
-0.34
-0.34
-0.33
-0.34
-0.34
-0.36
-0.36
-0.37
-0.39
-0.38
-0.39
-0.37
-0.37
-0.36
-0.37
-0.40
-0.41
-0.42
-0.42
-0.40
-0.37
-0.40
-0.39
-0.41
-0.41
-0.42
-0.34
-0.29
-0.31
-0.28
-0.28
-0.28
-0.27
-0.30
-0.31
-0.30
-0.29
-0.28
-0.27
-0.25
-0.24
-0.24
-0.25
-0.26
-0.25
-0.25
-0.24
-0.21
-0.21
-0.20
-0.18
-0.17
-0.15
-0.13
-0.12
-0.09
-0.06
-0.07
-0.09
-0.09
-0.10
-0.16
-0.18
-0.22
-0.24
-0.25
-0.25
-0.29
-0.30
-0.33
-0.30
-0.31
-0.24
-0.14
0.02
0.39
0.80
0.98
1.14
0.81
-0.32
-1.30
-1.66
-1.67
-1.38
-0.99
-0.70
-0.54
-0.45
-0.40
-0.42
-0.39
-0.38
-0.35
-0.36
-0.37
-0.39
-0.39
-0.40
-0.38
-0.39
-0.39
-0.40
-0.40
-0.41
-0.45
-0.45
-0.47
-0.48
-0.48
-0.49
-0.50
-0.52
-0.54
-0.58
-0.61
-0.64
-0.66
-0.68
-0.70
-0.71
-0.75
-0.81
-0.84
-0.89
-0.92
-0.93
-0.96
-0.97
-0.99
-1.03
-1.03
-1.04
-1.05
-1.01
-1.00
-0.96
-0.87
-0.81
-0.72
-0.67
-0.60
-0.54
-0.48
-0.41
-0.35
-0.29
-0.24
-0.24
-0.23
-0.24
-0.23
-0.22
-0.24
-0.23
-0.20
-0.20
-0.20
-0.24
-0.25
-0.26
-0.26
-0.24
-0.24
-0.22
-0.23
-0.25
-0.23
-0.25
-0.26
-0.27
-0.27
-0.25
-0.26
-0.25
-0.26
-0.26
-0.28
-0.29
-0.29
-0.29
-0.29
-0.26
-0.26
-0.27
-0.29
-0.30
-0.29
-0.29
-0.29
-0.28
-0.27
-0.26
-0.27
-0.28
-0.30
-0.29
-0.28
-0.28
-0.27
-0.25
-0.26
-0.27
-0.31
-0.29
-0.31
-0.30
-0.29
-0.29
-0.27
-0.27
-0.29
-0.28
-0.29
-0.28
-0.27
-0.24
-0.21
-0.17
-0.15
-0.13
-0.15
-0.14
-0.14
-0.17
-0.16
-0.14
-0.18
-0.21
-0.23
-0.29
-0.31
-0.35
-0.37
-0.37
-0.34
-0.33
-0.31
-0.27
-0.21
-0.01
0.42
0.79
0.99
1.12
0.45
-0.74
-1.46
-1.66
-1.56
-1.20
-0.86
-0.65
-0.51
-0.44
-0.41
-0.42
-0.43
-0.45
-0.43
-0.46
-0.44
-0.43
-0.43
-0.42
-0.44
-0.45
-0.47
-0.49
-0.48
-0.49
-0.47
-0.46
-0.48
-0.51
-0.53
-0.56
-0.56
-0.59
-0.62
-0.62
-0.65
-0.67
-0.72
-0.76
-0.81
-0.82
-0.86
-0.90
-0.90
-0.94
-0.96
-1.01
-1.04
-1.07
-1.10
-1.11
-1.08
-1.07
-1.02
-0.99
-0.95
-0.92
-0.85
-0.78
-0.68
-0.62
-0.54
-0.47
-0.41
-0.37
-0.37
-0.35
-0.35
-0.33
-0.30
-0.26
-0.28
-0.28
-0.29
-0.30
-0.27
-0.30
-0.30
-0.27
-0.26
-0.26
-0.26
-0.29
-0.31
-0.30
-0.32
-0.32
-0.29
-0.31
-0.31
-0.32
-0.32
-0.34
-0.34
-0.35
-0.32
-0.32
-0.33
-0.30
-0.33
-0.36
-0.36
-0.35
-0.36
-0.36
-0.34
-0.34
-0.31
-0.34
-0.35
-0.36
-0.36
-0.36
-0.35
-0.32
-0.32
-0.33
-0.33
-0.36
-0.35
-0.34
-0.33
-0.32
-0.32
-0.29
-0.32
-0.34
-0.34
-0.35
-0.33
-0.32
-0.30
-0.28
-0.27
-0.23
-0.20
-0.21
-0.19
-0.17
-0.15
-0.11
-0.13
-0.11
-0.11
-0.17
-0.22
-0.24
-0.26
-0.31
-0.30
-0.31
-0.32
-0.31
-0.33
-0.33
-0.28
-0.21
-0.09
0.28
0.72
1.00
1.21
0.93
-0.19
-1.26
-1.66
-1.66
-1.39
-0.98
-0.67
-0.48
-0.44
-0.38
-0.38
-0.38
-0.37
-0.34
-0.34
-0.35
-0.37
-0.39
-0.39
-0.43
-0.41
-0.41
-0.43
-0.42
-0.40
-0.42
-0.43
-0.45
-0.46
-0.48
-0.51
-0.51
-0.50
-0.52
-0.54
-0.60
-0.64
-0.67
-0.70
-0.75
-0.76
-0.77
-0.82
-0.85
-0.90
-0.94
-0.95
-0.97
-0.98
-1.00
-1.00
-0.99
-1.01
-1.01
-1.00
-0.97
-0.91
-0.83
-0.73
-0.67
-0.61
-0.58
-0.54
-0.48
-0.45
-0.39
-0.36
-0.34
-0.33
-0.41
-0.48
-0.51
-0.50
-0.47
-0.50
-0.47
-0.45
-0.45
-0.46
-0.48
-0.49
-0.51
-0.52
-0.49
-0.50
-0.46
-0.45
-0.48
-0.48
-0.49
-0.50
-0.51
-0.51
-0.50
-0.51
-0.50
-0.48
-0.50
-0.54
-0.55
-0.52
-0.51
-0.52
-0.52
-0.53
-0.53
-0.54
-0.55
-0.55
-0.51
-0.52
-0.52
-0.53
-0.52
-0.52
-0.51
-0.55
-0.54
-0.53
-0.51
-0.52
-0.52
-0.56
-0.55
-0.53
-0.54
-0.56
-0.56
-0.56
-0.50
-0.50
-0.49
-0.48
-0.51
-0.48
-0.46
-0.43
-0.43
-0.40
-0.40
-0.35
-0.37
-0.39
-0.40
-0.40
-0.45
-0.48
-0.46
-0.50
-0.54
-0.55
-0.58
-0.59
-0.57
-0.56
-0.51
-0.40
-0.28
-0.03
0.36
0.69
0.94
0.90
-0.01
-1.11
-1.68
-1.72
-1.63
-1.39
-1.05
-0.82
-0.72
-0.66
-0.60
-0.59
-0.57
-0.55
-0.58
-0.58
-0.56
-0.59
-0.61
-0.58
-0.57
-0.58
-0.59
-0.61
-0.62
-0.59
-0.61
-0.61
-0.60
-0.60
-0.59
-0.62
-0.65
-0.69
-0.70
-0.74
-0.75
-0.77
-0.77
-0.83
-0.86
-0.91
-0.95
-0.99
-1.00
-1.02
-1.04
-1.06
-1.08
-1.13
-1.13
-1.16
-1.16
-1.18
-1.15
-1.10
-1.06
-0.99
-0.92
-0.87
-0.83
-0.75
-0.69
-0.61
-0.56
-0.54
-0.49
-0.48
-0.48
-0.46
-0.45
-0.45
-0.43
-0.41
-0.40
-0.39
-0.38
-0.41
-0.40
-0.40
-0.41
-0.38
-0.36
-0.36
-0.36
-0.39
-0.38
-0.41
-0.41
-0.41
-0.39
-0.39
-0.40
-0.39
-0.41
-0.42
-0.45
-0.43
-0.40
-0.40
-0.39
-0.39
-0.39
-0.41
-0.42
-0.43
-0.43
-0.43
-0.42
-0.41
-0.41
-0.40
-0.44
-0.43
-0.46
-0.43
-0.45
-0.42
-0.41
-0.42
-0.42
-0.43
-0.46
-0.44
-0.44
-0.43
-0.42
-0.41
-0.39
-0.40
-0.42
-0.43
-0.44
-0.44
-0.41
-0.39
-0.36
-0.34
-0.30
-0.27
-0.28
-0.27
-0.29
-0.26
-0.27
-0.25
-0.23
-0.26
-0.30
-0.33
-0.34
-0.39
-0.41
-0.41
-0.41
-0.43
-0.41
-0.42
-0.38
-0.31
-0.19
0.17
0.59
0.82
1.00
0.72
-0.39
-1.40
-1.74
-1.74
-1.48
-1.07
-0.78
-0.61
-0.56
-0.53
-0.53
-0.50
-0.49
-0.48
-0.45
-0.47
-0.46
-0.47
-0.49
-0.51
-0.52
-0.50
-0.49
-0.49
-0.49
-0.50
-0.51
-0.53
-0.56
-0.55
-0.57
-0.57
-0.56
-0.60
-0.62
-0.63
-0.71
-0.72
-0.75
-0.78
-0.81
-0.82
-0.87
-0.89
-0.93
-0.97
-0.99
-1.01
-1.05
-1.07
-1.06
-1.08
-1.05
-1.05
-1.07
-1.01
-0.96
-0.90
-0.83
-0.73
-0.66
-0.58
-0.52
-0.47
-0.42
-0.37
-0.32
-0.22
-0.12
-0.12
-0.11
-0.13
-0.13
-0.12
-0.13
-0.12
-0.09
-0.07
-0.08
-0.10
-0.10
-0.13
-0.12
-0.11
-0.11
-0.09
-0.08
-0.08
-0.08
-0.11
-0.13
-0.11
-0.12
-0.13
-0.12
-0.12
-0.10
-0.11
-0.13
-0.14
-0.14
-0.17
-0.16
-0.12
-0.12
-0.11
-0.12
-0.14
-0.14
-0.13
-0.16
-0.14
-0.12
-0.13
-0.11
-0.12
-0.13
-0.13
-0.12
-0.13
-0.13
-0.11
-0.11
-0.10
-0.10
-0.11
-0.13
-0.12
-0.13
-0.11
-0.09
-0.06
-0.07
-0.08
-0.07
-0.07
-0.04
-0.01
0.02
0.04
0.06
0.07
0.07
0.04
0.01
0.03
-0.01
-0.03
-0.04
-0.06
-0.08
-0.09
-0.13
-0.14
-0.14
-0.14
-0.16
-0.09
0.00
0.16
0.58
0.95
1.14
1.31
0.85
-0.34
-1.19
-1.40
-1.29
-1.02
-0.73
-0.50
-0.36
-0.31
-0.27
-0.26
-0.22
-0.23
-0.23
-0.24
-0.24
-0.23
-0.26
-0.26
-0.25
-0.25
-0.26
-0.26
-0.29
-0.30
-0.29
-0.30
-0.31
-0.31
-0.29
-0.33
-0.34
-0.35
-0.38
-0.42
-0.43
-0.48
-0.48
-0.50
-0.52
-0.57
-0.61
-0.66
-0.67
-0.71
-0.74
-0.73
-0.77
-0.79
-0.84
-0.85
-0.87
-0.89
-0.90
-0.86
-0.79
-0.75
-0.67
-0.59
-0.54
-0.49
-0.42
-0.32
-0.26
-0.19
-0.13
-0.11
-0.10
-0.09
-0.07
-0.06
-0.04
-0.05
-0.05
-0.04
-0.04
-0.03
-0.04
-0.05
-0.08
-0.06
-0.06
-0.06
-0.06
-0.05
-0.03
-0.05
-0.05
-0.05
-0.04
-0.08
-0.08
-0.08
-0.08
-0.09
-0.09
-0.11
-0.13
-0.13
-0.13
-0.13
-0.10
-0.09
-0.08
-0.11
-0.13
-0.15
-0.13
-0.16
-0.13
-0.15
-0.13
-0.12
-0.14
-0.17
-0.17
-0.16
-0.16
-0.15
-0.12
-0.10
-0.12
-0.13
-0.17
-0.16
-0.16
-0.14
-0.14
-0.12
-0.14
-0.13
-0.13
-0.15
-0.15
-0.15
-0.12
-0.11
-0.03
0.01
-0.00
0.00
-0.01
-0.01
-0.03
-0.05
-0.01
-0.02
-0.07
-0.08
-0.12
-0.16
-0.17
-0.22
-0.22
-0.22
-0.20
-0.18
-0.18
-0.10
-0.04
0.17
0.59
0.97
1.21
1.32
0.51
-0.66
-1.41
-1.58
-1.48
-1.23
-0.89
-0.65
-0.46
-0.37
-0.34
-0.38
-0.41
-0.41
-0.44
-0.47
-0.46
-0.44
-0.46
-0.48
-0.48
-0.52
-0.52
-0.51
-0.52
-0.53
-0.49
-0.51
-0.51
-0.53
-0.57
-0.58
-0.61
-0.62
-0.63
-0.64
-0.64
-0.68
-0.72
-0.75
-0.79
-0.83
-0.85
-0.88
-0.91
-0.92
-0.94
-0.99
-1.04
-1.06
-1.05
-1.09
-1.08
-1.07
-1.04
-1.04
-1.01
-0.98
-0.93
-0.87
-0.78
-0.70
-0.63
-0.59
-0.56
-0.51
-0.47
-0.46
-0.43
-0.42
-0.40
-0.36
-0.38
-0.41
-0.40
-0.42
-0.38
-0.39
-0.41
-0.41
-0.39
-0.36
-0.38
-0.39
-0.42
-0.43
-0.43
-0.45
-0.43
-0.40
-0.40
-0.40
-0.44
-0.46
-0.49
-0.50
-0.49
-0.43
-0.44
-0.47
-0.47
-0.49
-0.50
-0.51
-0.50
-0.48
-0.47
-0.45
-0.43
-0.49
-0.51
-0.53
-0.52
-0.50
-0.49
-0.51
-0.50
-0.44
-0.44
-0.49
-0.53
-0.50
-0.51
-0.53
-0.52
-0.50
-0.49
-0.49
-0.51
-0.53
-0.52
-0.49
-0.48
-0.45
-0.45
-0.41
-0.38
-0.37
-0.36
-0.37
-0.38
-0.34
-0.35
-0.32
-0.33
-0.38
-0.42
-0.45
-0.43
-0.48
-0.49
-0.49
-0.51
-0.54
-0.50
-0.50
-0.43
-0.36
-0.19
0.20
0.63
0.87
0.98
0.36
-0.80
-1.57
-1.79
-1.68
-1.47
-1.12
-0.85
-0.71
-0.65
-0.60
-0.60
-0.60
-0.60
-0.55
-0.56
-0.54
-0.55
-0.56
-0.57
-0.58
-0.60
-0.59
-0.58
-0.58
-0.57
-0.57
-0.58
-0.63
-0.65
-0.63
-0.62
-0.60
-0.66
-0.68
-0.71
-0.77
-0.78
-0.79
-0.84
-0.88
-0.90
-0.92
-0.95
-0.97
-1.03
-1.06
-1.08
-1.13
-1.12
-1.11
-1.12
-1.15
-1.16
-1.15
-1.11
-1.06
-1.00
-0.95
-0.89
-0.80
-0.73
-0.65
-0.63
-0.62
-0.56
-0.53
-0.51
-0.46
-0.45
-0.44
-0.47
-0.49
-0.47
-0.49
-0.48
-0.43
-0.42
-0.41
-0.40
-0.43
-0.44
-0.43
-0.45
-0.46
-0.42
-0.42
-0.42
-0.41
-0.43
-0.44
-0.47
-0.43
-0.46
-0.44
-0.44
-0.46
-0.45
-0.46
-0.47
-0.48
-0.49
-0.46
-0.44
-0.42
-0.44
-0.44
-0.46
-0.48
-0.46
-0.46
-0.46
-0.43
-0.44
-0.44
-0.44
-0.45
-0.46
-0.46
-0.45
-0.46
-0.44
-0.43
-0.45
-0.46
-0.46
-0.47
-0.47
-0.46
-0.45
-0.45
-0.45
-0.44
-0.44
-0.44
-0.40
-0.39
-0.36
-0.31
-0.30
-0.29
-0.28
-0.28
-0.32
-0.33
-0.32
-0.33
-0.36
-0.35
-0.37
-0.41
-0.45
-0.48
-0.48
-0.49
-0.46
-0.47
-0.40
-0.31
-0.22
0.08
0.48
0.69
0.85
0.65
-0.39
-1.35
-1.76
-1.78
-1.53
-1.17
-0.87
-0.67
-0.60
-0.55
-0.49
-0.48
-0.48
-0.47
-0.46
-0.47
-0.47
-0.48
-0.46
-0.48
-0.47
-0.47
-0.48
-0.50
-0.50
-0.52
-0.52
-0.53
-0.53
-0.53
-0.55
-0.55
-0.58
-0.62
-0.61
-0.64
-0.66
-0.68
-0.69
-0.72
-0.76
-0.81
-0.85
-0.86
-0.90
-0.91
-0.93
-0.95
-0.96
-1.00
-1.03
-1.08
-1.09
-1.07
-1.07
-1.00
-0.96
-0.93
-0.86
-0.81
-0.75
-0.67
-0.60
-0.52
-0.44
-0.39
-0.35
-0.33
-0.32
-0.30
-0.30
-0.29
-0.26
-0.26
-0.24
-0.24
-0.23
-0.27
-0.25
-0.25
-0.26
-0.26
-0.24
-0.23
-0.20
-0.23
-0.25
-0.25
-0.26
-0.25
-0.28
-0.27
-0.25
-0.26
-0.27
-0.27
-0.28
-0.29
-0.30
-0.29
-0.28
-0.29
-0.28
-0.28
-0.31
-0.34
-0.32
-0.32
-0.34
-0.30
-0.31
-0.31
-0.28
-0.34
-0.32
-0.33
-0.34
-0.32
-0.31
-0.30
-0.29
-0.29
-0.31
-0.32
-0.33
-0.35
-0.32
-0.33
-0.30
-0.29
-0.29
-0.30
-0.32
-0.32
-0.34
-0.31
-0.30
-0.26
-0.21
-0.17
-0.15
-0.17
-0.18
-0.16
-0.15
-0.17
-0.14
-0.16
-0.18
-0.21
-0.27
-0.30
-0.35
-0.36
-0.36
-0.36
-0.35
-0.33
-0.34
-0.29
-0.19
0.01
0.42
0.80
0.99
1.09
0.53
-0.69
-1.45
-1.63
-1.57
-1.18
-0.81
-0.55
-0.40
-0.35
-0.33
-0.35
-0.35
-0.35
-0.34
-0.35
-0.32
-0.32
-0.31
-0.33
-0.32
-0.36
-0.35
-0.36
-0.35
-0.34
-0.34
-0.33
-0.34
-0.38
-0.38
-0.40
-0.40
-0.43
-0.43
-0.44
-0.45
-0.49
-0.52
-0.53
-0.60
-0.60
-0.63
-0.64
-0.64
-0.68
-0.74
-0.76
-0.79
-0.82
-0.84
-0.85
-0.85
-0.84
-0.83
-0.81
-0.79
-0.78
-0.69
-0.60
-0.52
-0.45
-0.34
-0.27
-0.20
-0.15
-0.11
-0.08
-0.05
-0.02
-0.00
0.02
0.03
0.03
0.05
0.02
0.03
0.02
0.02
0.04
0.07
0.06
0.06
0.05
0.03
0.02
0.02
0.03
0.02
0.04
0.05
0.01
0.00
0.01
0.00
-0.00
-0.01
0.01
0.03
0.03
0.03
-0.00
0.00
-0.01
-0.00
-0.01
-0.00
0.03
0.01
0.01
0.01
-0.01
-0.00
0.01
-0.01
0.02
0.03
0.04
0.03
0.00
0.02
0.01
0.03
-0.00
0.02
0.05
0.05
0.05
0.03
0.01
0.02
-0.00
0.03
0.04
0.05
0.07
0.10
0.11
0.13
0.15
0.17
0.18
0.22
0.23
0.18
0.21
0.18
0.13
0.12
0.10
0.07
0.05
0.02
0.02
0.01
-0.00
0.01
0.01
0.11
0.19
0.45
0.90
1.22
1.40
1.46
0.73
-0.47
-1.14
-1.28
-1.09
-0.75
-0.45
-0.22
-0.10
-0.05
-0.04
-0.02
-0.00
0.02
0.03
0.05
0.06
0.05
0.02
0.00
0.02
0.01
0.03
0.03
0.04
0.05
0.04
0.02
0.01
0.01
-0.01
0.01
-0.01
-0.03
-0.04
-0.07
-0.11
-0.13
-0.16
-0.19
-0.20
-0.21
-0.25
-0.28
-0.32
-0.35
-0.37
-0.41
-0.45
-0.46
-0.45
-0.47
-0.47
-0.47
-0.46
-0.45
-0.40
-0.34
-0.26
-0.16
-0.09
-0.01
0.04
0.11
0.18
0.23
0.28
0.34
0.36
0.38
0.38
0.38
0.39
0.39
0.39
0.40
0.43
0.43
0.43
0.42
0.43
0.40
0.39
0.41
0.41
0.43
0.44
0.45
0.45
0.43
0.40
0.40
0.39
0.41
0.44
0.44
0.43
0.43
0.40
0.38
0.40
0.38
0.38
0.41
0.43
0.43
0.40
0.41
0.37
0.37
0.37
0.40
0.39
0.41
0.41
0.40
0.41
0.40
0.40
0.38
0.41
0.42
0.43
0.41
0.41
0.42
0.38
0.36
0.37
0.39
0.41
0.40
0.40
0.40
0.41
0.44
0.46
0.49
0.51
0.53
0.55
0.58
0.57
0.52
0.54
0.52
0.49
0.45
0.43
0.39
0.37
0.37
0.36
0.34
0.34
0.34
0.35
0.41
0.50
0.71
1.10
1.42
1.62
1.74
1.04
-0.15
-0.88
-1.00
-0.84
-0.57
-0.17
0.05
0.15
0.22
0.25
0.26
0.28
0.28
0.28
0.25
0.24
0.22
0.24
0.22
0.22
0.26
0.27
0.26
0.24
0.22
0.20
0.16
0.17
0.17
0.17
0.16
0.15
0.13
0.11
0.07
0.01
0.01
-0.02
-0.03
-0.06
-0.10
-0.15
-0.19
-0.23
-0.24
-0.30
-0.31
-0.32
-0.37
-0.39
-0.42
-0.44
-0.46
-0.44
-0.44
-0.39
-0.30
-0.25
-0.20
-0.15
-0.11
-0.03
0.04
0.08
0.11
0.17
0.21
0.22
0.23
0.22
0.23
0.20
0.14
0.15
0.16
0.16
0.17
0.15
0.11
0.12
0.12
0.13
0.13
0.11
0.10
0.13
0.11
0.09
0.09
0.07
0.07
0.08
0.07
0.08
0.08
0.08
0.01
0.00
0.01
0.05
0.06
0.04
0.03
0.02
-0.00
0.03
0.01
0.03
0.03
0.03
0.04
0.04
0.03
0.02
0.00
-0.00
0.01
-0.01
0.00
0.02
0.05
0.06
0.02
-0.03
0.02
0.02
0.01
-0.01
0.01
0.01
0.01
0.04
0.03
0.01
0.05
0.06
0.10
0.15
0.17
0.18
0.18
0.13
0.11
0.13
0.10
0.07
0.05
0.03
-0.00
-0.02
-0.08
-0.07
-0.09
-0.05
-0.01
0.03
0.08
0.20
0.45
0.88
1.17
1.37
1.30
0.36
-0.68
-1.27
-1.32
-1.16
-0.91
-0.62
-0.42
-0.31
-0.23
-0.19
-0.14
-0.12
-0.15
-0.16
-0.21
-0.21
-0.22
-0.17
-0.19
-0.17
-0.15
-0.16
-0.17
-0.19
-0.22
-0.24
-0.20
-0.21
-0.24
-0.26
-0.26
-0.29
-0.31
-0.33
-0.35
-0.39
-0.39
-0.41
-0.44
-0.50
-0.57
-0.60
-0.62
-0.65
-0.70
-0.69
-0.71
-0.76
-0.77
-0.80
-0.79
-0.80
-0.81
-0.75
-0.70
-0.64
-0.58
-0.48
-0.37
-0.35
-0.30
-0.23
-0.20
-0.16
-0.15
-0.10
-0.12
-0.16
-0.18
-0.17
-0.19
-0.17
-0.17
-0.14
-0.15
-0.16
-0.17
-0.18
-0.17
-0.18
-0.19
-0.17
-0.17
-0.16
-0.18
-0.20
-0.22
-0.23
-0.22
-0.22
-0.23
-0.21
-0.21
-0.24
-0.22
-0.22
-0.22
-0.18
-0.15
-0.01
0.32
0.73
0.95
1.11
0.64
-0.55
-1.48
-1.71
-1.44
-1.05
-0.67
-0.42
-0.31
-0.24
-0.18
-0.20
-0.15
-0.16
-0.17
-0.19
-0.20
-0.19
-0.20
-0.20
-0.21
-0.21
-0.22
-0.24
-0.29
-0.32
-0.34
-0.33
-0.34
-0.35
-0.33
-0.33
-0.38
-0.42
-0.44
-0.47
-0.51
-0.54
-0.54
-0.53
-0.57
-0.56
-0.62
-0.66
-0.69
-0.72
-0.74
-0.75
-0.76
-0.71
-0.71
-0.68
-0.63
-0.54
-0.43
-0.34
-0.23
-0.11
-0.03
0.00
0.01
-0.01
0.00
0.01
0.03
0.02
0.06
0.04
-0.01
-0.03
-0.06
-0.09
-0.10
-0.11
-0.14
-0.14
-0.15
-0.14
-0.17
-0.20
-0.21
-0.21
-0.21
-0.21
-0.20
-0.19
-0.21
-0.21
-0.23
-0.23
-0.23
-0.24
-0.20
-0.20
-0.22
-0.22
-0.25
-0.30
-0.33
-0.35
-0.32
-0.28
-0.24
-0.16
-0.04
0.32
0.73
1.01
1.21
0.84
-0.36
-1.30
-1.53
-1.37
-1.03
-0.64
-0.37
-0.25
-0.17
-0.15
-0.14
-0.15
-0.14
-0.16
-0.18
-0.21
-0.21
-0.20
-0.18
-0.20
-0.21
-0.22
-0.23
-0.24
-0.26
-0.27
-0.26
-0.27
-0.27
-0.29
-0.32
-0.32
-0.37
-0.39
-0.41
-0.42
-0.46
-0.47
-0.51
-0.56
-0.60
-0.66
-0.71
-0.76
-0.79
-0.82
-0.86
-0.87
-0.92
-0.94
-0.90
-0.77
-0.69
-0.57
-0.44
-0.39
-0.29
-0.21
-0.17
-0.13
-0.09
-0.05
-0.03
-0.01
0.02
-0.00
0.00
-0.03
-0.05
-0.04
-0.05
-0.04
-0.02
-0.02
-0.03
-0.06
-0.07
-0.08
-0.06
-0.07
-0.07
-0.06
-0.05
-0.05
-0.08
-0.09
-0.10
-0.10
-0.10
-0.04
0.01
0.02
0.03
0.04
0.23
0.53
0.75
0.93
0.87
-0.12
-1.20
-1.56
-1.30
-0.83
-0.45
-0.19
-0.05
0.03
0.03
0.04
0.03
0.00
-0.03
-0.04
-0.03
-0.03
-0.03
-0.01
0.01
-0.00
-0.04
-0.06
-0.04
-0.06
-0.08
-0.06
-0.07
-0.08
-0.10
-0.14
-0.15
-0.18
-0.21
-0.24
-0.23
-0.26
-0.28
-0.33
-0.37
-0.41
-0.46
-0.50
-0.55
-0.60
-0.62
-0.66
-0.67
-0.68
-0.69
-0.73
-0.69
-0.63
-0.43
-0.24
-0.09
0.01
0.06
0.13
0.17
0.17
0.21
0.23
0.25
0.23
0.21
0.21
0.16
0.16
0.17
0.16
0.17
0.17
0.17
0.17
0.13
0.10
0.09
0.11
0.10
0.10
0.11
0.11
0.11
0.08
0.06
0.06
0.07
0.07
0.11
0.08
0.23
0.58
0.91
1.09
1.12
0.22
-1.03
-1.58
-1.57
-1.26
-0.79
-0.36
-0.09
0.05
0.08
0.09
0.12
0.13
0.10
0.11
0.08
0.06
0.03
0.03
0.03
0.02
0.01
0.00
0.01
0.00
-0.04
-0.03
-0.04
-0.06
-0.08
-0.09
-0.09
-0.13
-0.15
-0.20
-0.21
-0.23
-0.27
-0.28
-0.29
-0.32
-0.35
-0.37
-0.42
-0.45
-0.47
-0.50
-0.53
-0.51
-0.51
-0.50
-0.48
-0.48
-0.48
-0.42
-0.30
-0.08
0.14
0.23
0.27
0.29
0.28
0.29
0.28
0.26
0.27
0.26
0.24
0.23
0.20
0.17
0.15
0.15
0.13
0.12
0.12
0.13
0.12
0.11
0.08
0.09
0.09
0.14
0.23
0.35
0.63
0.88
1.12
1.34
1.02
-0.19
-1.22
-1.42
-1.12
-0.75
-0.43
-0.27
-0.21
-0.18
-0.09
-0.05
-0.02
0.02
0.02
0.05
0.05
0.06
0.07
0.07
0.08
0.09
0.08
0.09
0.05
0.02
-0.02
-0.04
-0.06
-0.07
-0.08
-0.11
-0.12
-0.15
-0.18
-0.21
-0.23
-0.27
-0.31
-0.31
-0.31
-0.34
-0.34
-0.36
-0.40
-0.43
-0.45
-0.44
-0.38
-0.36
-0.36
-0.33
-0.29
-0.25
-0.14
-0.02
0.06
0.14
0.17
0.21
0.21
0.20
0.20
0.21
0.23
0.25
0.26
0.25
0.24
0.22
0.19
0.17
0.16
0.13
0.13
0.14
0.13
0.11
0.09
0.08
0.05
0.06
0.04
0.05
0.06
0.06
0.04
0.04
-0.00
0.02
0.03
0.00
0.02
0.02
-0.02
-0.05
-0.07
-0.10
-0.10
-0.03
0.06
0.17
0.46
0.96
1.32
1.57
1.29
0.12
-0.93
-1.29
-1.24
-1.00
-0.59
-0.26
-0.08
-0.04
0.01
0.02
0.02
-0.02
0.00
0.00
-0.00
-0.03
-0.08
-0.09
-0.07
-0.10
-0.09
-0.11
-0.13
-0.19
-0.23
-0.22
-0.23
-0.24
-0.28
-0.28
-0.27
-0.31
-0.33
-0.36
-0.43
-0.45
-0.50
-0.48
-0.47
-0.48
-0.48
-0.46
-0.45
-0.35
-0.31
-0.32
-0.31
-0.28
-0.25
-0.19
-0.14
-0.09
-0.05
-0.00
0.04
0.09
0.12
0.16
0.19
0.21
0.20
0.16
0.15
0.14
0.14
0.14
0.16
0.13
0.09
0.07
0.03
0.01
0.02
0.02
0.04
0.04
0.06
-0.00
-0.01
-0.01
-0.06
-0.10
-0.11
-0.14
-0.17
-0.15
-0.16
-0.22
-0.22
-0.24
-0.23
-0.15
-0.05
0.01
0.03
0.01
0.00
-0.01
0.01
0.01
0.05
0.06
0.04
0.03
0.04
-0.00
0.03
0.14
0.24
0.49
0.90
1.19
1.36
1.15
0.10
-0.99
-1.40
-1.31
-1.06
-0.71
-0.41
-0.25
-0.16
-0.10
-0.11
-0.09
-0.08
-0.06
-0.09
-0.06
-0.08
-0.14
-0.20
-0.21
-0.25
-0.28
-0.26
-0.25
-0.24
-0.19
-0.16
-0.09
-0.05
-0.06
-0.09
-0.06
-0.04
-0.07
-0.10
-0.15
-0.21
-0.22
-0.26
-0.29
-0.29
-0.30
-0.33
-0.37
-0.39
-0.41
-0.41
-0.44
-0.45
-0.40
-0.38
-0.39
-0.38
-0.36
-0.31
-0.23
-0.18
-0.12
-0.04
0.01
0.05
0.10
0.10
0.12
0.12
0.15
0.11
0.12
0.13
0.13
0.12
0.13
0.11
0.09
0.08
0.10
0.10
0.12
0.15
0.25
0.35
0.49
0.82
1.09
1.22
1.30
0.40
-0.98
-1.50
-1.43
-1.11
-0.68
-0.30
-0.13
-0.02
0.04
0.05
0.03
0.03
0.02
0.03
0.02
0.00
0.02
0.03
0.03
0.01
0.01
-0.01
-0.00
-0.01
-0.01
-0.01
-0.02
-0.02
-0.03
-0.07
-0.10
-0.13
-0.16
-0.15
-0.17
-0.17
-0.22
-0.21
-0.25
-0.28
-0.28
-0.30
-0.31
-0.31
-0.33
-0.30
-0.27
-0.26
-0.22
-0.17
-0.11
-0.03
0.04
0.10
0.14
0.14
0.12
0.13
0.15
0.15
0.13
0.15
0.12
0.10
0.08
0.05
0.06
0.07
0.06
0.05
0.06
0.07
0.06
0.10
0.12
0.19
0.27
0.29
0.32
0.35
0.27
0.25
0.19
0.07
0.01
-0.04
-0.10
-0.07
-0.09
-0.14
-0.13
-0.13
-0.14
-0.10
-0.08
-0.01
0.39
0.84
1.05
1.25
0.83
-0.41
-1.28
-1.55
-1.42
-1.06
-0.70
-0.45
-0.35
-0.24
-0.20
-0.26
-0.20
-0.20
-0.24
-0.24
-0.22
-0.23
-0.25
-0.24
-0.25
-0.27
-0.27
-0.29
-0.26
-0.25
-0.29
-0.30
-0.31
-0.34
-0.30
-0.31
-0.40
-0.40
-0.38
-0.37
-0.44
-0.54
-0.57
-0.59
-0.56
-0.56
-0.60
-0.58
-0.61
-0.67
-0.66
-0.70
-0.68
-0.68
-0.68
-0.64
-0.59
-0.53
-0.53
-0.48
-0.40
-0.38
-0.26
-0.17
-0.13
-0.10
-0.08
-0.05
-0.04
0.01
0.05
-0.01
-0.01
0.02
-0.04
-0.08
-0.05
-0.05
-0.06
-0.05
-0.00
0.00
0.06
0.07
0.02
0.01
0.03
-0.00
0.00
0.01
0.01
0.10
0.09
0.02
0.08
0.02
-0.02
-0.02
-0.00
0.03
0.06
0.05
0.06
-0.01
0.02
0.02
0.03
0.09
0.13
0.06
0.09
0.04
-0.03
-0.03
0.01
0.02
0.06
0.06
-0.04
-0.06
-0.06
-0.04
-0.03
-0.02
0.02
0.01
-0.09
-0.12
-0.08
-0.14
-0.14
-0.20
-0.16
-0.14
-0.17
-0.22
-0.21
-0.23
-0.28
-0.26
-0.27
-0.23
-0.21
-0.22
-0.23
-0.25
-0.34
-0.34
-0.31
-0.32
-0.25
-0.28
-0.30
-0.28
-0.23
-0.28
-0.37
-0.26
-0.30
-0.40
-0.28
-0.29
-0.24
-0.31
-0.38
-0.33
-0.32
-0.44
-0.39
-0.36
-0.33
-0.26
-0.21
-0.27
-0.26
-0.22
-0.23
-0.22
-0.24
-0.21
-0.20
-0.25
-0.23
-0.32
-0.37
-0.39
-0.39
-0.39
-0.37
-0.42
-0.43
-0.41
-0.35
-0.26
0.01
0.46
0.70
0.74
0.79
0.05
-1.07
-1.73
-1.81
-1.59
-1.21
-0.89
-0.68
-0.56
-0.53
-0.53
-0.51
-0.52
-0.52
-0.48
-0.45
-0.45
-0.53
-0.60
-0.54
-0.56
-0.58
-0.52
-0.54
-0.55
-0.55
-0.59
-0.53
-0.61
-0.68
-0.63
-0.65
-0.61
-0.63
-0.61
-0.63
-0.69
-0.74
-0.69
-0.72
-0.71
-0.74
-0.71
-0.72
-0.76
-0.74
-0.77
-0.78
-0.79
-0.79
-0.75
-0.72
-0.77
-0.80
-0.75
-0.69
-0.60
-0.61
-0.69
-0.59
-0.44
-0.33
-0.39
-0.44
-0.35
-0.26
-0.34
-0.33
-0.29
-0.26
-0.38
-0.41
-0.44
-0.39
-0.37
-0.39
-0.42
-0.39
-0.38
-0.36
-0.39
-0.38
-0.37
-0.43
-0.40
-0.36
-0.49
-0.48
-0.48
-0.48
-0.49
-0.43
-0.41
-0.35
-0.45
-0.46
-0.45
-0.24
-0.24
-0.54
-0.53
-0.48
-0.47
-0.37
-0.25
-0.39
-0.49
-0.26
-0.04
0.12
0.44
0.64
0.63
-0.24
-1.46
-2.02
-1.90
-1.42
-0.88
-0.63
-0.47
-0.34
-0.34
-0.33
-0.30
-0.28
-0.41
-0.44
-0.39
-0.39
-0.37
-0.35
-0.25
-0.36
-0.53
-0.46
-0.35
-0.39
-0.48
-0.37
-0.33
-0.28
-0.47
-0.65
-0.63
-0.58
-0.58
-0.62
-0.59
-0.58
-0.60
-0.63
-0.59
-0.71
-0.77
-0.80
-0.67
-0.62
-0.77
-0.90
-0.86
-0.83
-0.89
-0.79
-0.75
-0.68
-0.61
-0.56
-0.52
-0.46
-0.38
-0.39
-0.31
-0.30
-0.30
-0.21
-0.18
-0.24
-0.26
-0.17
-0.08
-0.15
-0.38
-0.34
-0.20
-0.23
-0.22
-0.29
-0.36
-0.26
-0.29
-0.25
-0.25
-0.42
-0.38
-0.28
-0.31
-0.33
-0.28
-0.29
-0.37
-0.28
-0.28
-0.25
-0.24
-0.39
-0.36
-0.28
-0.42
-0.40
-0.35
-0.31
-0.30
-0.27
-0.26
-0.22
-0.32
-0.26
-0.29
-0.39
-0.37
-0.30
-0.21
-0.23
-0.31
-0.42
-0.39
-0.31
-0.22
-0.28
-0.34
-0.23
-0.25
-0.29
-0.32
-0.31
-0.32
-0.25
-0.14
-0.20
-0.04
0.03
0.11
0.13
0.16
0.02
-0.03
-0.10
-0.08
-0.14
-0.18
-0.27
-0.33
-0.28
-0.34
-0.28
-0.24
-0.08
-0.15
-0.33
-0.24
-0.05
0.25
0.45
0.63
0.81
0.60
-0.43
-1.40
-1.73
-1.68
-1.14
-0.78
-0.73
-0.44
-0.33
-0.23
-0.32
-0.32
-0.37
-0.31
-0.30
-0.36
-0.32
-0.37
-0.35
-0.31
-0.38
-0.36
-0.25
-0.36
-0.41
-0.31
-0.25
-0.49
-0.44
-0.30
-0.39
-0.59
-0.61
-0.55
-0.53
-0.54
-0.53
-0.52
-0.57
-0.61
-0.58
-0.64
-0.66
-0.65
-0.59
-0.60
-0.64
-0.71
-0.75
-0.76
-0.84
-0.75
-0.69
-0.71
-0.73
-0.80
-0.69
-0.58
-0.56
-0.54
-0.50
-0.40
-0.30
-0.27
-0.34
-0.32
-0.34
-0.31
-0.20
-0.19
-0.15
-0.13
-0.12
-0.14
-0.11
-0.09
-0.24
-0.22
-0.24
-0.18
-0.18
-0.23
-0.20
-0.21
-0.24
-0.20
-0.16
-0.21
-0.20
-0.18
-0.17
-0.20
-0.28
-0.27
-0.17
-0.19
-0.21
-0.20
-0.23
-0.26
-0.31
-0.28
-0.23
-0.28
-0.25
-0.25
-0.23
-0.21
-0.25
-0.24
-0.24
-0.26
-0.24
-0.21
-0.20
-0.21
-0.27
-0.25
-0.27
-0.32
-0.30
-0.22
-0.20
-0.29
-0.26
-0.23
-0.25
-0.30
-0.25
-0.21
-0.22
-0.27
-0.25
-0.29
-0.29
-0.26
-0.29
-0.27
-0.27
-0.31
-0.31
-0.25
-0.23
-0.23
-0.28
-0.33
-0.32
-0.29
-0.29
-0.30
-0.29
-0.26
-0.22
-0.32
-0.32
-0.29
-0.26
-0.28
-0.24
-0.23
-0.29
-0.29
-0.20
-0.09
-0.09
-0.16
-0.10
-0.04
-0.03
0.01
0.01
-0.08
-0.13
-0.18
-0.22
-0.25
-0.29
-0.36
-0.34
-0.32
-0.36
-0.33
-0.25
-0.15
0.05
0.39
0.62
0.77
0.81
0.21
-0.97
-1.69
-1.85
-1.60
-1.11
-0.72
-0.52
-0.41
-0.35
-0.40
-0.48
-0.41
-0.33
-0.30
-0.34
-0.34
-0.42
-0.40
-0.36
-0.38
-0.36
-0.34
-0.42
-0.45
-0.40
-0.39
-0.40
-0.44
-0.43
-0.49
-0.48
-0.44
-0.50
-0.52
-0.50
-0.54
-0.58
-0.62
-0.60
-0.63
-0.68
-0.64
-0.66
-0.68
-0.76
-0.73
-0.73
-0.78
-0.80
-0.75
-0.75
-0.73
-0.73
-0.68
-0.65
-0.61
-0.50
-0.49
-0.40
-0.37
-0.37
-0.35
-0.38
-0.36
-0.35
-0.31
-0.26
-0.27
-0.25
-0.31
-0.25
-0.23
-0.33
-0.41
-0.34
-0.31
-0.32
-0.30
-0.36
-0.35
-0.27
-0.34
-0.34
-0.29
-0.27
-0.26
-0.31
-0.29
-0.33
-0.41
-0.41
-0.33
-0.31
-0.31
-0.31
-0.28
-0.29
-0.30
-0.30
-0.28
-0.27
-0.19
0.02
0.30
0.52
0.63
0.10
-1.03
-1.85
-2.02
-1.75
-1.24
-0.76
-0.51
-0.35
-0.29
-0.24
-0.30
-0.29
-0.25
-0.21
-0.21
-0.27
-0.34
-0.30
-0.29
-0.29
-0.23
-0.26
-0.34
-0.31
-0.26
-0.28
-0.34
-0.40
-0.41
-0.39
-0.36
-0.38
-0.41
-0.49
-0.46
-0.46
-0.52
-0.54
-0.52
-0.54
-0.52
-0.47
-0.59
-0.65
-0.71
-0.64
-0.65
-0.64
-0.60
-0.63
-0.64
-0.58
-0.54
-0.47
-0.39
-0.34
-0.30
-0.21
-0.13
-0.03
-0.03
-0.20
-0.21
-0.13
-0.16
-0.17
-0.15
-0.17
-0.16
-0.17
-0.22
-0.17
-0.19
-0.15
-0.08
-0.16
-0.20
-0.31
-0.36
-0.29
-0.26
-0.27
-0.34
-0.29
-0.27
-0.29
-0.25
-0.26
-0.28
-0.30
-0.24
-0.25
-0.31
-0.29
-0.26
-0.32
-0.35
-0.35
-0.32
-0.33
-0.31
-0.27
-0.21
-0.28
-0.34
-0.32
-0.28
-0.23
-0.19
-0.11
-0.01
0.06
0.06
0.06
-0.09
-0.17
-0.18
-0.22
-0.30
-0.33
-0.32
-0.32
-0.35
-0.44
-0.43
-0.25
-0.22
-0.09
0.25
0.52
0.61
0.61
0.23
-0.89
-1.77
-2.10
-1.95
-1.40
-0.86
-0.55
-0.49
-0.48
-0.44
-0.42
-0.24
-0.28
-0.44
-0.40
-0.42
-0.45
-0.46
-0.48
-0.56
-0.48
-0.46
-0.45
-0.46
-0.50
-0.52
-0.51
-0.48
-0.50
-0.58
-0.48
-0.39
-0.59
-0.52
-0.65
-0.71
-0.73
-0.78
-0.75
-0.71
-0.67
-0.70
-0.75
-0.81
-0.72
-0.76
-0.68
-0.56
-0.84
-0.86
-0.79
-0.85
-0.83
-0.77
-0.70
-0.70
-0.65
-0.57
-0.55
-0.50
-0.38
-0.32
-0.36
-0.39
-0.41
-0.36
-0.37
-0.21
-0.10
-0.35
-0.45
-0.32
-0.33
-0.47
-0.50
-0.46
-0.49
-0.47
-0.43
-0.38
-0.38
-0.41
-0.40
-0.42
-0.42
-0.39
-0.34
-0.32
-0.37
-0.40
-0.36
-0.39
-0.45
-0.48
-0.44
-0.42
-0.37
-0.39
-0.50
-0.51
-0.44
-0.44
-0.45
-0.42
-0.37
-0.36
-0.36
-0.45
-0.43
-0.39
-0.32
-0.41
-0.38
-0.44
-0.42
-0.47
-0.43
-0.43
-0.32
-0.31
-0.52
-0.55
-0.46
-0.39
-0.36
-0.44
-0.49
-0.45
-0.51
-0.45
-0.27
-0.30
-0.35
-0.25
-0.38
-0.56
-0.63
-0.59
-0.54
-0.51
-0.50
-0.50
-0.51
-0.52
-0.50
-0.47
-0.49
-0.47
-0.40
-0.35
-0.45
-0.51
-0.43
-0.63
-0.73
-0.62
-0.55
-0.54
-0.50
-0.47
-0.45
-0.43
-0.44
-0.48
-0.43
-0.36
-0.31
-0.32
-0.36
-0.33
-0.37
-0.31
-0.33
-0.37
-0.40
-0.45
-0.44
-0.53
-0.54
-0.53
-0.58
-0.44
-0.47
-0.54
-0.39
-0.32
-0.12
0.23
0.54
0.80
0.68
-0.30
-1.33
-1.82
-1.77
-1.59
-1.27
-1.04
-0.86
-0.68
-0.56
-0.59
-0.59
-0.56
-0.51
-0.47
-0.50
-0.53
-0.56
-0.56
-0.54
-0.53
-0.51
-0.51
-0.49
-0.54
-0.62
-0.54
-0.55
-0.61
-0.61
-0.60
-0.59
-0.63
-0.64
-0.64
-0.63
-0.59
-0.49
-0.53
-0.60
-0.62
-0.56
-0.61
-0.65
-0.58
-0.60
-0.58
-0.58
-0.46
-0.35
-0.64
-0.68
-0.61
-0.52
-0.34
-0.33
-0.37
-0.30
-0.20
-0.15
-0.16
-0.17
-0.14
-0.16
-0.14
-0.13
-0.21
-0.24
-0.19
-0.24
-0.39
-0.36
-0.33
-0.32
-0.39
-0.39
-0.35
-0.42
-0.43
-0.37
-0.39
-0.44
-0.45
-0.40
-0.38
-0.40
-0.40
-0.42
-0.46
-0.47
-0.46
-0.43
-0.42
-0.39
-0.38
-0.37
-0.37
-0.37
-0.42
-0.35
-0.30
-0.24
-0.18
0.07
0.53
1.01
0.91
-0.17
-1.18
-1.56
-1.56
-1.36
-1.21
-1.04
-0.67
-0.43
-0.41
-0.38
-0.36
-0.30
-0.26
-0.25
-0.23
-0.28
-0.29
-0.14
-0.35
-0.38
-0.42
-0.41
-0.37
-0.41
-0.44
-0.48
-0.43
-0.39
-0.43
-0.50
-0.46
-0.38
-0.42
-0.57
-0.60
-0.53
-0.60
-0.57
-0.58
-0.58
-0.60
-0.69
-0.68
-0.63
-0.63
-0.71
-0.76
-0.68
-0.60
-0.59
-0.59
-0.57
-0.47
-0.43
-0.32
-0.20
-0.10
-0.03
0.05
0.12
0.05
-0.03
-0.00
-0.03
-0.06
-0.02
-0.13
-0.20
-0.24
-0.27
-0.17
-0.30
-0.35
-0.35
-0.28
-0.28
-0.26
-0.32
-0.35
-0.37
-0.31
-0.31
-0.31
-0.28
-0.28
-0.27
-0.31
-0.35
-0.38
-0.38
-0.34
-0.30
-0.31
-0.31
-0.36
-0.33
-0.28
-0.35
-0.37
-0.33
-0.22
-0.21
-0.30
-0.24
-0.17
-0.00
0.39
0.84
1.04
1.02
0.26
-0.82
-1.49
-1.67
-1.55
-1.25
-0.76
-0.56
-0.37
-0.29
-0.28
-0.15
-0.31
-0.36
-0.23
-0.32
-0.32
-0.23
-0.16
-0.15
-0.31
-0.32
-0.31
-0.25
-0.18
-0.22
-0.27
-0.32
-0.32
-0.28
-0.30
-0.33
-0.35
-0.39
-0.36
-0.33
-0.34
-0.34
-0.35
-0.43
-0.48
-0.44
-0.47
-0.47
-0.44
-0.45
-0.46
-0.44
-0.47
-0.48
-0.44
-0.46
-0.51
-0.41
-0.31
-0.32
-0.19
-0.16
-0.27
-0.25
-0.28
-0.24
-0.19
-0.13
-0.11
-0.07
-0.14
-0.20
-0.16
-0.14
-0.10
-0.01
-0.08
-0.21
-0.24
-0.20
-0.23
-0.23
-0.20
-0.23
-0.23
-0.26
-0.23
-0.14
-0.13
-0.22
-0.29
-0.24
-0.20
-0.17
-0.19
-0.17
-0.21
-0.38
-0.36
-0.21
-0.28
-0.36
-0.30
-0.26
-0.24
-0.22
-0.22
-0.20
-0.23
-0.28
-0.39
-0.37
-0.32
-0.25
-0.27
-0.28
-0.28
-0.25
-0.32
-0.30
-0.25
-0.12
-0.06
-0.43
-0.48
-0.32
-0.28
-0.31
-0.29
-0.18
-0.19
-0.34
-0.39
-0.42
-0.32
-0.30
-0.32
-0.34
-0.29
-0.30
-0.30
-0.25
-0.09
-0.22
-0.39
-0.32
-0.24
-0.18
-0.35
-0.45
-0.32
-0.26
-0.31
-0.28
-0.33
-0.39
-0.39
-0.37
-0.28
-0.25
-0.09
-0.12
-0.25
-0.23
-0.09
0.04
-0.03
-0.00
-0.07
-0.24
-0.26
-0.21
-0.15
-0.25
-0.35
-0.31
-0.28
-0.32
-0.36
-0.40
-0.23
-0.19
-0.29
0.04
0.48
0.70
0.76
0.74
-0.05
-1.11
-1.63
-1.66
-1.42
-0.97
-0.75
-0.68
-0.54
-0.43
-0.35
-0.36
-0.43
-0.39
-0.41
-0.40
-0.43
-0.37
-0.30
-0.39
-0.36
-0.32
-0.49
-0.55
-0.47
-0.42
-0.43
-0.49
-0.47
-0.38
-0.33
-0.32
-0.40
-0.51
-0.53
-0.49
-0.53
-0.58
-0.48
-0.49
-0.62
-0.65
-0.57
-0.60
-0.65
-0.77
-0.73
-0.68
-0.67
-0.67
-0.74
-0.74
-0.65
-0.71
-0.76
-0.67
-0.53
-0.42
-0.41
-0.55
-0.41
-0.28
-0.38
-0.39
-0.33
-0.25
-0.19
-0.22
-0.29
-0.32
-0.21
-0.24
-0.30
-0.34
-0.33
-0.26
-0.27
-0.27
-0.22
-0.30
-0.42
-0.42
-0.47
-0.41
-0.39
-0.35
-0.36
-0.37
-0.36
-0.31
-0.20
-0.41
-0.54
-0.48
-0.50
-0.45
-0.43
-0.46
-0.46
-0.41
-0.37
-0.30
-0.27
-0.22
-0.39
-0.23
0.25
0.48
0.60
0.36
-0.67
-1.64
-1.93
-1.84
-1.33
-0.84
-0.55
-0.45
-0.29
-0.25
-0.27
-0.26
-0.26
-0.21
-0.34
-0.35
-0.34
-0.29
-0.28
-0.30
-0.41
-0.36
-0.35
-0.31
-0.40
-0.58
-0.43
-0.36
-0.45
-0.44
-0.40
-0.47
-0.60
-0.61
-0.65
-0.67
-0.57
-0.48
-0.64
-0.68
-0.70
-0.64
-0.51
-0.57
-0.63
-0.65
-0.71
-0.69
-0.66
-0.63
-0.53
-0.52
-0.43
-0.46
-0.52
-0.41
-0.37
-0.36
-0.27
-0.23
-0.21
-0.13
-0.12
-0.17
-0.27
-0.14
-0.11
-0.29
-0.38
-0.27
-0.20
-0.25
-0.34
-0.29
-0.31
-0.42
-0.36
-0.39
-0.34
-0.31
-0.32
-0.35
-0.39
-0.42
-0.43
-0.38
-0.32
-0.33
-0.38
-0.36
-0.39
-0.31
-0.31
-0.31
-0.30
-0.12
-0.05
-0.21
-0.20
0.03
0.10
-0.15
-0.20
-0.02
-0.01
0.22
0.72
1.10
1.18
1.06
0.03
-1.28
-1.76
-1.67
-1.35
-1.01
-0.75
-0.51
-0.38
-0.31
-0.23
-0.24
-0.37
-0.39
-0.36
-0.28
-0.15
-0.15
-0.34
-0.32
-0.25
-0.27
-0.36
-0.43
-0.41
-0.35
-0.28
-0.23
-0.30
-0.44
-0.47
-0.41
-0.42
-0.35
-0.27
-0.33
-0.38
-0.28
-0.24
-0.15
-0.28
-0.33
-0.32
-0.32
-0.25
-0.44
-0.47
-0.38
-0.41
-0.52
-0.56
-0.73
-0.66
-0.47
-0.38
-0.41
-0.32
-0.24
-0.25
-0.30
-0.31
-0.25
-0.11
-0.15
-0.24
-0.20
-0.21
-0.17
-0.04
-0.17
-0.29
-0.34
-0.32
-0.24
-0.26
-0.35
-0.32
-0.16
-0.10
-0.34
-0.37
-0.24
-0.33
-0.33
-0.28
-0.29
-0.28
-0.26
-0.21
-0.09
-0.14
0.13
0.58
0.85
0.92
0.87
0.06
-1.16
-1.75
-1.57
-1.01
-0.58
-0.55
-0.40
-0.34
-0.27
-0.25
-0.24
-0.20
-0.13
-0.09
-0.17
-0.35
-0.34
-0.35
-0.36
-0.36
-0.36
-0.33
-0.28
-0.33
-0.34
-0.30
-0.30
-0.26
-0.26
-0.26
-0.42
-0.53
-0.40
-0.45
-0.48
-0.45
-0.51
-0.53
-0.34
-0.47
-0.64
-0.63
-0.68
-0.72
-0.70
-0.73
-0.64
-0.57
-0.75
-0.70
-0.55
-0.61
-0.55
-0.36
-0.22
-0.21
-0.03
-0.08
-0.06
0.04
-0.02
0.02
0.01
-0.05
-0.02
-0.07
0.02
0.01
-0.17
-0.20
-0.09
-0.10
-0.13
-0.03
-0.09
-0.11
0.20
0.05
-0.00
0.27
0.75
0.97
0.96
0.58
-0.44
-1.30
-1.60
-1.39
-1.27
-0.89
-0.40
-0.21
-0.13
-0.03
-0.18
-0.20
-0.13
-0.07
-0.14
-0.05
-0.06
-0.09
-0.20
-0.26
0.00
-0.12
-0.28
-0.18
-0.08
-0.22
-0.31
-0.09
-0.14
-0.16
-0.20
-0.24
-0.20
-0.20
-0.41
-0.39
-0.38
-0.31
-0.18
-0.44
-0.54
-0.35
-0.38
-0.39
-0.29
-0.25
-0.42
-0.55
-0.36
-0.39
-0.22
-0.21
-0.32
-0.07
-0.10
-0.08
-0.10
-0.14
-0.11
0.20
0.32
-0.10
-0.04
-0.01
-0.06
-0.12
-0.16
-0.27
-0.04
0.21
-0.02
-0.19
-0.19
-0.18
-0.18
-0.07
-0.09
-0.08
-0.12
-0.10
-0.40
-0.32
-0.18
-0.17
-0.21
-0.27
-0.22
0.02
0.01
-0.28
-0.27
0.12
-0.23
-0.57
-0.41
-0.32
-0.17
-0.11
-0.11
-0.28
-0.25
-0.15
0.05
-0.05
-0.31
-0.45
-0.44
-0.15
0.02
-0.28
-0.48
-0.41
-0.18
-0.11
-0.30
-0.19
-0.02
-0.12
-0.44
-0.35
-0.24
0.01
-0.21
-0.44
-0.27
-0.27
-0.13
-0.02
0.15
0.13
0.11
0.18
0.08
-0.01
0.10
-0.01
-0.04
-0.24
-0.39
-0.21
-0.23
-0.35
-0.26
-0.38
-0.33
-0.20
-0.07
0.29
0.62
0.74
0.76
0.35
-0.73
-1.56
-1.80
-1.66
-1.14
-0.73
-0.60
-0.45
-0.28
-0.25
-0.13
-0.09
-0.18
-0.17
-0.29
-0.43
-0.42
-0.37
-0.33
-0.27
-0.30
-0.28
-0.27
-0.26
-0.26
-0.29
-0.31
-0.28
-0.30
-0.29
-0.25
-0.33
-0.42
-0.36
-0.34
-0.35
-0.40
-0.37
-0.32
-0.31
-0.39
-0.44
-0.46
-0.41
-0.45
-0.51
-0.47
-0.51
-0.49
-0.46
-0.44
-0.45
-0.41
-0.36
-0.32
-0.27
-0.31
-0.34
-0.32
-0.18
-0.17
-0.25
-0.19
-0.08
-0.04
-0.03
-0.03
0.01
0.03
0.08
0.03
0.03
0.06
0.06
0.01
-0.00
-0.00
0.00
0.01
0.04
0.04
0.07
0.07
0.06
0.09
0.05
-0.00
0.02
0.04
0.08
0.11
0.10
0.08
0.05
0.05
0.06
0.10
0.09
0.14
0.22
0.13
0.06
0.03
-0.03
0.01
0.04
0.11
0.10
0.11
0.14
0.12
0.07
0.06
0.08
0.12
0.12
0.14
0.14
0.11
0.11
0.08
0.06
0.08
0.10
0.07
0.12
0.16
0.12
0.10
0.08
0.03
0.10
0.12
0.09
0.12
0.14
0.08
0.05
0.10
0.14
0.09
0.03
0.08
0.12
0.10
0.13
0.11
0.02
0.06
0.11
0.12
0.08
0.09
0.08
0.08
0.06
0.04
0.04
0.07
0.05
0.07
0.09
0.05
0.05
0.05
0.09
0.14
0.21
0.25
0.26
0.25
0.29
0.33
0.23
0.15
0.25
0.25
0.20
0.16
0.16
0.11
0.07
0.02
-0.02
-0.01
-0.00
0.02
0.06
0.11
0.21
0.36
0.62
0.84
0.95
0.89
0.35
-0.78
-1.43
-1.49
-1.14
-0.69
-0.34
-0.14
-0.05
-0.03
0.00
-0.00
0.01
0.01
-0.02
-0.02
0.00
-0.01
0.00
0.02
0.00
0.01
0.00
-0.01
-0.03
-0.05
-0.02
0.01
-0.01
-0.13
-0.09
-0.09
-0.10
-0.10
-0.11
-0.11
-0.12
-0.11
-0.16
-0.19
-0.20
-0.22
-0.23
-0.27
-0.29
-0.28
-0.27
-0.26
-0.27
-0.28
-0.31
-0.32
-0.31
-0.30
-0.28
-0.23
-0.20
-0.18
-0.16
-0.11
-0.05
-0.01
0.09
0.15
0.17
0.20
0.21
0.18
0.16
0.13
0.14
0.11
0.11
0.10
0.10
0.10
0.12
0.08
0.07
0.08
0.08
0.09
0.10
0.10
0.11
0.08
0.07
0.07
0.07
0.06
0.10
0.13
0.13
0.13
0.11
0.08
0.08
0.10
0.10
0.12
0.12
0.15
0.17
0.15
0.20
0.23
0.34
0.64
0.95
1.06
0.81
-0.22
-1.13
-1.35
-1.17
-0.73
-0.22
0.06
0.20
0.23
0.24
0.26
0.25
0.20
0.17
0.20
0.21
0.22
0.17
0.17
0.13
0.09
0.07
0.05
0.04
0.05
0.05
0.03
0.01
0.00
-0.03
-0.06
-0.08
-0.10
-0.12
-0.12
-0.13
-0.17
-0.20
-0.24
-0.27
-0.29
-0.29
-0.30
-0.30
-0.30
-0.35
-0.37
-0.38
-0.35
-0.33
-0.28
-0.24
-0.20
-0.13
-0.09
-0.05
0.02
0.04
0.07
0.12
0.14
0.19
0.18
0.15
0.13
0.12
0.13
0.13
0.12
0.11
0.10
0.13
0.12
0.14
0.15
0.14
0.13
0.14
0.15
0.11
0.08
0.10
0.09
0.09
0.10
0.08
0.07
0.08
0.11
0.15
0.14
0.13
0.09
0.10
0.10
0.12
0.14
0.16
0.11
0.14
0.15
0.12
0.09
0.09
0.11
0.14
0.16
0.15
0.16
0.14
0.11
0.11
0.10
0.12
0.13
0.15
0.16
0.14
0.10
0.12
0.14
0.13
0.10
0.14
0.16
0.19
0.17
0.18
0.23
0.35
0.44
0.44
0.52
0.55
0.47
0.45
0.34
0.28
0.23
0.17
0.11
0.08
0.03
0.05
0.05
0.05
0.04
0.09
0.18
0.29
0.54
0.96
1.23
1.40
1.24
0.29
-0.90
-1.38
-1.26
-1.03
-0.73
-0.40
-0.16
-0.07
-0.03
0.01
0.04
0.05
-0.02
-0.04
0.03
0.03
-0.01
-0.03
0.01
-0.00
-0.01
0.00
0.00
-0.00
0.01
-0.02
-0.04
-0.01
-0.08
-0.17
-0.17
-0.16
-0.13
-0.14
-0.15
-0.19
-0.16
-0.16
-0.14
-0.15
-0.16
-0.20
-0.19
-0.21
-0.20
-0.19
-0.19
-0.21
-0.18
-0.21
-0.19
-0.18
-0.14
-0.13
-0.10
-0.05
-0.02
-0.02
-0.03
0.03
0.09
0.11
0.07
0.09
0.09
0.09
0.10
0.10
0.11
0.09
0.07
0.05
0.05
0.07
0.06
0.05
0.05
0.05
0.05
-0.00
-0.00
0.02
0.04
0.05
0.03
0.06
0.02
0.01
-0.03
-0.04
0.05
0.05
-0.00
-0.08
-0.06
-0.07
-0.09
-0.05
-0.04
-0.04
-0.01
-0.03
-0.02
-0.00
-0.02
-0.02
-0.05
-0.04
-0.04
-0.05
-0.08
-0.10
-0.10
-0.09
-0.09
-0.08
-0.07
-0.08
-0.09
-0.08
-0.06
-0.05
-0.10
-0.11
-0.10
-0.11
-0.10
-0.08
-0.03
-0.04
-0.07
-0.08
-0.08
-0.06
-0.08
-0.10
-0.10
-0.06
-0.07
-0.06
-0.03
-0.06
-0.05
-0.09
-0.10
-0.10
-0.06
-0.05
-0.05
-0.04
-0.07
-0.06
-0.05
-0.12
-0.10
-0.09
-0.07
-0.05
-0.05
-0.05
-0.09
-0.02
-0.02
-0.05
-0.00
0.14
0.22
0.30
0.28
0.29
0.21
0.10
0.03
-0.05
-0.06
-0.06
-0.07
-0.08
-0.13
-0.20
-0.14
-0.03
0.11
0.18
0.45
0.80
1.05
1.12
0.96
0.13
-0.90
-1.39
-1.34
-1.15
-0.88
-0.56
-0.33
-0.21
-0.22
-0.24
-0.22
-0.18
-0.19
-0.13
-0.13
-0.14
-0.18
-0.20
-0.20
-0.19
-0.18
-0.17
-0.17
-0.20
-0.24
-0.25
-0.25
-0.25
-0.25
-0.23
-0.25
-0.30
-0.36
-0.39
-0.40
-0.40
-0.41
-0.43
-0.48
-0.49
-0.52
-0.51
-0.54
-0.54
-0.57
-0.57
-0.59
-0.57
-0.57
-0.55
-0.60
-0.61
-0.67
-0.65
-0.63
-0.60
-0.55
-0.53
-0.56
-0.53
-0.47
-0.42
-0.36
-0.27
-0.24
-0.16
-0.06
-0.02
-0.00
-0.02
-0.04
-0.07
-0.11
-0.11
-0.07
-0.08
-0.09
-0.08
-0.10
-0.13
-0.09
-0.07
-0.03
-0.11
-0.18
-0.18
-0.17
-0.18
-0.18
-0.16
-0.18
-0.11
-0.16
-0.17
-0.12
-0.13
-0.15
-0.11
-0.13
-0.15
-0.12
-0.08
0.09
0.42
0.72
0.82
0.65
-0.19
-1.27
-1.70
-1.56
-1.15
-0.67
-0.37
-0.24
-0.15
-0.12
-0.13
-0.15
-0.12
-0.12
-0.11
-0.13
-0.14
-0.15
-0.17
-0.17
-0.15
-0.15
-0.16
-0.17
-0.19
-0.19
-0.21
-0.22
-0.23
-0.26
-0.25
-0.26
-0.26
-0.27
-0.30
-0.40
-0.40
-0.43
-0.46
-0.47
-0.48
-0.49
-0.52
-0.59
-0.66
-0.68
-0.68
-0.67
-0.65
-0.64
-0.67
-0.64
-0.61
-0.54
-0.45
-0.42
-0.40
-0.34
-0.25
-0.17
-0.14
-0.12
-0.13
-0.10
-0.09
-0.06
-0.06
-0.05
-0.04
-0.05
-0.09
-0.12
-0.11
-0.12
-0.11
-0.10
-0.06
-0.06
-0.08
-0.10
-0.14
-0.12
-0.14
-0.12
-0.13
-0.10
-0.11
-0.13
-0.12
-0.14
-0.13
-0.13
-0.12
-0.12
-0.10
-0.06
-0.13
-0.15
-0.14
-0.14
-0.14
-0.14
-0.12
-0.14
-0.13
-0.09
-0.10
-0.14
-0.12
-0.16
-0.16
-0.12
-0.14
-0.14
-0.13
-0.14
-0.15
-0.18
-0.17
-0.17
-0.09
-0.14
-0.17
-0.13
-0.10
-0.08
-0.04
0.06
0.20
0.26
0.26
0.24
0.23
0.19
0.09
0.01
-0.03
-0.08
-0.12
-0.15
-0.13
-0.18
-0.20
-0.22
-0.19
-0.12
-0.03
0.17
0.43
0.64
0.68
0.53
-0.12
-1.15
-1.64
-1.68
-1.31
-0.85
-0.51
-0.34
-0.22
-0.21
-0.21
-0.16
-0.21
-0.22
-0.19
-0.17
-0.23
-0.26
-0.24
-0.26
-0.26
-0.20
-0.18
-0.22
-0.29
-0.30
-0.30
-0.29
-0.32
-0.34
-0.33
-0.33
-0.36
-0.34
-0.38
-0.50
-0.54
-0.53
-0.52
-0.51
-0.54
-0.54
-0.54
-0.58
-0.63
-0.64
-0.61
-0.65
-0.65
-0.66
-0.69
-0.69
-0.68
-0.68
-0.67
-0.66
-0.61
-0.56
-0.49
-0.42
-0.38
-0.35
-0.38
-0.32
-0.28
-0.26
-0.21
-0.19
-0.16
-0.14
-0.15
-0.14
-0.12
-0.13
-0.11
-0.13
-0.13
-0.14
-0.18
-0.20
-0.18
-0.15
-0.17
-0.15
-0.15
-0.15
-0.14
-0.14
-0.17
-0.22
-0.21
-0.20
-0.16
-0.14
-0.20
-0.19
-0.21
-0.20
-0.19
-0.20
-0.19
-0.17
-0.16
-0.14
-0.17
-0.23
-0.23
-0.19
-0.21
-0.21
-0.20
-0.18
-0.17
-0.19
-0.18
-0.19
-0.20
-0.21
-0.22
-0.20
-0.17
-0.19
-0.19
-0.19
-0.20
-0.22
-0.22
-0.20
-0.18
-0.18
-0.20
-0.17
-0.17
-0.22
-0.20
-0.17
-0.23
-0.24
-0.22
-0.20
-0.19
-0.20
-0.23
-0.23
-0.24
-0.22
-0.21
-0.21
-0.19
-0.22
-0.22
-0.23
-0.26
-0.31
-0.33
-0.30
-0.28
-0.31
-0.32
-0.32
-0.30
-0.28
-0.24
-0.14
-0.11
-0.08
-0.09
-0.05
-0.05
-0.09
-0.15
-0.16
-0.13
-0.14
-0.12
-0.18
-0.21
-0.26
-0.26
-0.31
-0.34
-0.31
-0.24
-0.23
-0.18
-0.10
0.09
0.34
0.53
0.62
0.49
-0.22
-1.27
-1.76
-1.77
-1.40
-0.94
-0.62
-0.44
-0.37
-0.29
-0.28
-0.24
-0.29
-0.31
-0.33
-0.31
-0.30
-0.30
-0.29
-0.26
-0.24
-0.29
-0.33
-0.37
-0.35
-0.33
-0.32
-0.34
-0.35
-0.37
-0.41
-0.44
-0.43
-0.40
-0.50
-0.51
-0.46
-0.47
-0.52
-0.54
-0.58
-0.62
-0.62
-0.63
-0.64
-0.65
-0.69
-0.68
-0.64
-0.66
-0.72
-0.74
-0.71
-0.72
-0.74
-0.73
-0.73
-0.71
-0.66
-0.59
-0.57
-0.48
-0.43
-0.36
-0.33
-0.27
-0.15
-0.07
-0.22
-0.28
-0.21
-0.20
-0.23
-0.21
-0.18
-0.19
-0.23
-0.25
-0.22
-0.20
-0.21
-0.17
-0.16
-0.25
-0.24
-0.22
-0.20
-0.19
-0.22
-0.20
-0.20
-0.20
-0.19
-0.14
-0.15
-0.20
-0.23
-0.20
-0.18
-0.17
-0.14
-0.04
-0.06
-0.19
-0.17
0.11
0.37
0.50
0.35
-0.53
-1.48
-1.83
-1.80
-1.49
-0.94
-0.55
-0.36
-0.25
-0.15
-0.18
-0.19
-0.16
-0.16
-0.22
-0.23
-0.20
-0.17
-0.21
-0.23
-0.22
-0.21
-0.25
-0.26
-0.27
-0.32
-0.34
-0.29
-0.28
-0.29
-0.31
-0.36
-0.37
-0.38
-0.40
-0.46
-0.39
-0.36
-0.40
-0.47
-0.56
-0.60
-0.60
-0.62
-0.64
-0.61
-0.58
-0.60
-0.62
-0.61
-0.59
-0.54
-0.45
-0.38
-0.33
-0.31
-0.26
-0.17
-0.15
-0.16
-0.16
-0.14
-0.13
-0.09
-0.12
-0.17
-0.20
-0.19
-0.19
-0.19
-0.17
-0.16
-0.16
-0.14
-0.13
-0.19
-0.23
-0.23
-0.23
-0.21
-0.21
-0.22
-0.14
-0.21
-0.29
-0.28
-0.28
-0.25
-0.23
-0.24
-0.24
-0.24
-0.22
-0.18
-0.20
-0.20
-0.15
-0.10
0.02
0.14
0.16
0.15
0.14
0.17
0.12
-0.04
-0.17
-0.22
-0.24
-0.29
-0.29
-0.30
-0.28
-0.30
-0.26
-0.24
-0.16
-0.03
0.24
0.52
0.61
0.56
0.02
-1.07
-1.74
-1.90
-1.62
-1.17
-0.77
-0.54
-0.45
-0.36
-0.34
-0.32
-0.37
-0.35
-0.32
-0.33
-0.34
-0.33
-0.29
-0.37
-0.37
-0.38
-0.40
-0.39
-0.38
-0.31
-0.37
-0.40
-0.46
-0.44
-0.44
-0.53
-0.54
-0.55
-0.56
-0.56
-0.59
-0.58
-0.60
-0.61
-0.62
-0.62
-0.64
-0.66
-0.72
-0.70
-0.69
-0.71
-0.70
-0.69
-0.67
-0.67
-0.68
-0.69
-0.66
-0.60
-0.57
-0.51
-0.43
-0.40
-0.35
-0.33
-0.30
-0.29
-0.29
-0.29
-0.26
-0.22
-0.19
-0.18
-0.17
-0.20
-0.23
-0.27
-0.26
-0.25
-0.25
-0.26
-0.28
-0.26
-0.27
-0.29
-0.31
-0.31
-0.29
-0.26
-0.24
-0.27
-0.29
-0.29
-0.27
-0.29
-0.29
-0.26
-0.28
-0.31
-0.29
-0.28
-0.31
-0.35
-0.31
-0.31
-0.30
-0.26
-0.25
-0.27
-0.30
-0.30
-0.30
-0.29
-0.30
-0.29
-0.28
-0.26
-0.27
-0.27
-0.30
-0.29
-0.28
-0.26
-0.28
-0.30
-0.29
-0.24
-0.24
-0.29
-0.30
-0.30
-0.28
-0.26
-0.23
-0.21
-0.28
-0.28
-0.27
-0.28
-0.25
-0.25
-0.26
-0.28
-0.28
-0.26
-0.29
-0.28
-0.30
-0.30
-0.29
-0.27
-0.24
-0.25
-0.23
-0.25
-0.29
-0.30
-0.28
-0.29
-0.27
-0.26
-0.29
-0.28
-0.30
-0.28
-0.28
-0.28
-0.26
-0.19
-0.12
-0.09
-0.11
-0.11
-0.11
-0.09
-0.09
-0.09
-0.06
-0.08
-0.12
-0.16
-0.24
-0.28
-0.31
-0.33
-0.33
-0.30
-0.30
-0.31
-0.25
-0.19
-0.11
0.12
0.45
0.64
0.68
0.29
-0.69
-1.52
-1.79
-1.71
-1.35
-0.90
-0.61
-0.43
-0.32
-0.35
-0.35
-0.31
-0.35
-0.33
-0.30
-0.29
-0.31
-0.33
-0.30
-0.29
-0.31
-0.34
-0.37
-0.34
-0.35
-0.33
-0.30
-0.32
-0.39
-0.38
-0.37
-0.37
-0.45
-0.43
-0.41
-0.40
-0.41
-0.41
-0.42
-0.46
-0.47
-0.46
-0.46
-0.47
-0.44
-0.41
-0.38
-0.37
-0.44
-0.44
-0.43
-0.39
-0.35
-0.30
-0.25
-0.20
-0.18
-0.17
-0.13
-0.09
-0.08
-0.05
0.01
-0.01
-0.02
-0.05
-0.05
-0.07
-0.07
-0.13
-0.18
-0.18
-0.19
-0.19
-0.19
-0.21
-0.21
-0.21
-0.23
-0.23
-0.20
-0.19
-0.20
-0.21
-0.26
-0.26
-0.27
-0.26
-0.26
-0.25
-0.24
-0.25
-0.21
-0.17
-0.21
-0.25
-0.26
-0.29
-0.28
-0.26
-0.24
-0.24
-0.24
-0.26
-0.23
-0.22
0.10
0.54
0.87
0.67
-0.38
-1.32
-1.69
-1.59
-1.33
-1.08
-0.70
-0.39
-0.23
-0.20
-0.18
-0.15
-0.14
-0.17
-0.21
-0.18
-0.17
-0.21
-0.24
-0.22
-0.24
-0.26
-0.20
-0.18
-0.24
-0.22
-0.20
-0.22
-0.27
-0.30
-0.32
-0.31
-0.33
-0.34
-0.32
-0.31
-0.36
-0.39
-0.43
-0.51
-0.57
-0.61
-0.63
-0.57
-0.57
-0.56
-0.55
-0.56
-0.56
-0.54
-0.53
-0.45
-0.37
-0.27
-0.21
-0.19
-0.12
-0.03
0.01
-0.03
-0.04
-0.00
0.00
-0.00
-0.04
-0.05
-0.07
-0.14
-0.13
-0.17
-0.17
-0.15
-0.09
-0.10
-0.15
-0.14
-0.13
-0.15
-0.15
-0.15
-0.15
-0.14
-0.20
-0.22
-0.22
-0.22
-0.25
-0.26
-0.28
-0.25
-0.21
-0.15
-0.15
-0.18
-0.20
-0.13
-0.09
-0.07
0.03
0.06
0.05
0.22
0.53
0.93
1.18
1.21
0.56
-0.57
-1.33
-1.48
-1.31
-1.07
-0.73
-0.45
-0.34
-0.27
-0.20
-0.19
-0.16
-0.15
-0.17
-0.20
-0.15
-0.16
-0.17
-0.14
-0.18
-0.24
-0.31
-0.32
-0.26
-0.24
-0.18
-0.20
-0.23
-0.26
-0.22
-0.19
-0.21
-0.25
-0.24
-0.24
-0.24
-0.24
-0.29
-0.31
-0.24
-0.28
-0.35
-0.35
-0.35
-0.39
-0.42
-0.36
-0.37
-0.44
-0.48
-0.47
-0.40
-0.34
-0.28
-0.27
-0.22
-0.13
-0.12
-0.15
-0.12
-0.11
-0.10
-0.08
-0.06
-0.10
-0.14
-0.17
-0.24
-0.27
-0.26
-0.26
-0.26
-0.26
-0.22
-0.14
-0.10
-0.12
-0.11
-0.02
0.01
0.05
0.06
0.05
0.03
0.01
-0.01
-0.03
-0.04
-0.03
-0.05
-0.02
-0.01
-0.06
-0.10
-0.12
-0.10
-0.12
-0.14
-0.13
-0.07
-0.08
-0.08
-0.10
-0.14
-0.11
-0.08
-0.06
-0.04
-0.01
0.04
0.15
0.42
0.79
1.07
1.04
0.47
-0.63
-1.32
-1.46
-1.36
-1.05
-0.66
-0.30
-0.15
-0.09
-0.02
0.01
0.01
0.01
0.03
-0.00
-0.01
-0.00
-0.01
-0.06
-0.08
-0.04
-0.01
-0.08
-0.14
-0.12
-0.12
-0.14
-0.14
-0.11
-0.12
-0.21
-0.23
-0.25
-0.25
-0.28
-0.31
-0.34
-0.30
-0.32
-0.38
-0.39
-0.41
-0.47
-0.45
-0.47
-0.46
-0.51
-0.54
-0.55
-0.57
-0.58
-0.51
-0.37
-0.30
-0.20
-0.11
-0.06
0.00
0.03
0.02
0.02
0.01
0.00
0.05
0.08
0.08
0.07
0.08
0.08
0.04
0.01
0.04
0.05
0.04
0.04
0.04
0.02
0.03
0.02
0.02
-0.03
-0.00
0.01
0.01
0.01
-0.05
-0.05
-0.03
-0.04
-0.05
-0.02
-0.01
0.01
0.03
0.06
0.24
0.58
0.82
0.91
0.62
-0.26
-1.23
-1.53
-1.36
-1.03
-0.57
-0.27
-0.13
-0.02
0.07
0.09
0.07
0.00
-0.02
-0.03
0.01
0.01
-0.01
-0.01
-0.01
-0.06
-0.06
-0.06
-0.12
-0.12
-0.09
-0.08
-0.06
-0.09
-0.13
-0.19
-0.18
-0.17
-0.22
-0.23
-0.25
-0.27
-0.31
-0.32
-0.38
-0.40
-0.41
-0.42
-0.44
-0.45
-0.47
-0.48
-0.51
-0.57
-0.61
-0.61
-0.57
-0.51
-0.41
-0.27
-0.13
-0.01
0.03
0.05
0.12
0.14
0.13
0.14
0.16
0.16
0.17
0.16
0.08
0.03
0.02
0.02
0.05
0.02
0.01
0.02
0.01
-0.01
0.03
0.17
0.27
0.35
0.55
0.74
0.78
0.62
-0.18
-1.24
-1.72
-1.69
-1.32
-0.84
-0.40
-0.16
-0.08
-0.03
-0.03
-0.03
-0.00
0.02
0.02
0.00
0.00
-0.01
-0.01
0.02
0.05
0.06
0.11
0.12
0.13
0.10
0.11
0.09
0.07
0.06
0.02
-0.03
-0.03
-0.07
-0.15
-0.25
-0.32
-0.34
-0.38
-0.45
-0.48
-0.48
-0.48
-0.48
-0.49
-0.49
-0.47
-0.46
-0.47
-0.44
-0.40
-0.38
-0.28
-0.26
-0.21
-0.17
-0.13
-0.12
-0.04
-0.01
-0.02
-0.04
-0.03
-0.08
-0.13
-0.14
-0.15
-0.13
-0.10
-0.10
-0.11
-0.10
-0.14
-0.15
-0.13
-0.14
-0.15
-0.14
-0.09
-0.08
0.03
0.13
0.28
0.49
0.72
0.82
0.77
0.14
-1.05
-1.68
-1.73
-1.43
-0.93
-0.52
-0.35
-0.20
-0.09
-0.09
-0.08
-0.05
-0.15
-0.18
-0.16
-0.13
-0.11
-0.13
-0.12
-0.13
-0.14
-0.15
-0.14
-0.15
-0.17
-0.15
-0.14
-0.19
-0.20
-0.24
-0.27
-0.30
-0.29
-0.31
-0.35
-0.29
-0.32
-0.33
-0.35
-0.38
-0.39
-0.39
-0.41
-0.41
-0.37
-0.36
-0.36
-0.37
-0.37
-0.35
-0.30
-0.25
-0.21
-0.13
-0.11
-0.10
-0.09
-0.10
-0.07
-0.07
-0.04
-0.05
-0.07
-0.08
-0.08
-0.09
-0.10
-0.09
-0.12
-0.12
-0.13
-0.10
-0.11
-0.10
-0.15
-0.19
-0.21
-0.19
-0.18
-0.14
-0.13
-0.13
-0.18
-0.21
-0.20
-0.20
-0.21
-0.20
-0.18
-0.14
-0.12
-0.08
-0.03
0.04
0.13
0.19
0.24
0.20
0.16
0.11
-0.00
-0.08
-0.14
-0.21
-0.27
-0.29
-0.26
-0.28
-0.28
-0.27
-0.27
-0.27
-0.22
-0.15
-0.09
0.05
0.31
0.55
0.58
0.40
-0.37
-1.31
-1.74
-1.71
-1.38
-0.94
-0.61
-0.42
-0.34
-0.31
-0.30
-0.29
-0.28
-0.26
-0.27
-0.28
-0.26
-0.29
-0.31
-0.30
-0.31
-0.30
-0.31
-0.33
-0.32
-0.32
-0.34
-0.38
-0.39
-0.42
-0.44
-0.42
-0.45
-0.44
-0.47
-0.50
-0.56
-0.57
-0.61
-0.57
-0.55
-0.58
-0.67
-0.71
-0.73
-0.71
-0.70
-0.61
-0.61
-0.75
-0.82
-0.83
-0.72
-0.66
-0.64
-0.67
-0.60
-0.52
-0.45
-0.43
-0.36
-0.32
-0.28
-0.30
-0.33
-0.27
-0.21
-0.19
-0.19
-0.24
-0.28
-0.26
-0.23
-0.24
-0.27
-0.24
-0.16
-0.17
-0.30
-0.26
-0.25
-0.28
-0.33
-0.38
-0.33
-0.28
-0.25
-0.27
-0.32
-0.31
-0.25
-0.19
-0.31
-0.38
-0.31
-0.36
-0.37
-0.37
-0.40
-0.36
-0.34
-0.42
-0.45
-0.28
-0.24
-0.36
-0.42
-0.37
-0.36
-0.39
-0.42
-0.43
-0.37
-0.30
-0.26
-0.27
-0.31
-0.26
-0.29
-0.30
-0.32
-0.30
-0.34
-0.40
-0.37
-0.28
-0.32
-0.40
-0.41
-0.38
-0.38
-0.37
-0.30
-0.23
-0.25
-0.33
-0.37
-0.39
-0.38
-0.36
-0.34
-0.31
-0.37
-0.34
-0.34
-0.35
-0.35
-0.31
-0.29
-0.38
-0.34
-0.35
-0.39
-0.40
-0.39
-0.33
-0.32
-0.32
-0.34
-0.35
-0.38
-0.39
-0.34
-0.34
-0.36
-0.38
-0.34
-0.24
-0.20
-0.25
-0.30
-0.28
-0.27
-0.25
-0.18
-0.08
-0.04
-0.10
-0.24
-0.39
-0.43
-0.42
-0.44
-0.41
-0.43
-0.43
-0.40
-0.40
-0.37
-0.39
-0.37
-0.25
-0.05
0.24
0.43
0.53
0.43
-0.30
-1.32
-1.82
-1.83
-1.57
-1.17
-0.81
-0.56
-0.46
-0.45
-0.49
-0.51
-0.48
-0.46
-0.42
-0.41
-0.39
-0.38
-0.37
-0.36
-0.42
-0.48
-0.43
-0.40
-0.35
-0.38
-0.51
-0.54
-0.49
-0.48
-0.51
-0.53
-0.54
-0.49
-0.50
-0.62
-0.62
-0.63
-0.62
-0.61
-0.58
-0.54
-0.51
-0.60
-0.67
-0.69
-0.68
-0.67
-0.73
-0.69
-0.63
-0.65
-0.64
-0.64
-0.70
-0.70
-0.70
-0.69
-0.64
-0.51
-0.46
-0.57
-0.46
-0.33
-0.25
-0.40
-0.42
-0.22
-0.10
-0.08
-0.14
-0.32
-0.41
-0.32
-0.29
-0.32
-0.32
-0.33
-0.36
-0.29
-0.24
-0.29
-0.32
-0.28
-0.28
-0.42
-0.45
-0.33
-0.29
-0.30
-0.40
-0.38
-0.37
-0.38
-0.29
-0.33
-0.38
-0.33
-0.28
-0.30
-0.36
-0.41
-0.41
-0.38
-0.30
-0.19
-0.23
-0.29
-0.22
0.03
0.22
0.39
0.46
0.27
-0.49
-1.45
-1.81
-1.70
-1.17
-0.76
-0.64
-0.54
-0.47
-0.37
-0.30
-0.38
-0.50
-0.45
-0.34
-0.36
-0.43
-0.49
-0.45
-0.37
-0.34
-0.42
-0.51
-0.52
-0.54
-0.59
-0.58
-0.56
-0.54
-0.52
-0.52
-0.60
-0.63
-0.70
-0.71
-0.69
-0.78
-0.79
-0.78
-0.75
-0.81
-0.93
-0.98
-0.87
-0.85
-0.90
-0.89
-0.84
-0.83
-0.87
-0.83
-0.79
-0.79
-0.70
-0.64
-0.60
-0.55
-0.47
-0.41
-0.40
-0.43
-0.40
-0.39
-0.44
-0.41
-0.39
-0.40
-0.37
-0.33
-0.30
-0.33
-0.38
-0.38
-0.43
-0.51
-0.49
-0.43
-0.37
-0.40
-0.54
-0.45
-0.34
-0.40
-0.46
-0.43
-0.32
-0.36
-0.48
-0.52
-0.43
-0.26
-0.30
-0.32
-0.32
-0.29
-0.16
-0.10
-0.01
-0.07
-0.12
-0.16
-0.21
-0.27
-0.32
-0.34
-0.35
-0.35
-0.45
-0.46
-0.50
-0.49
-0.33
-0.25
-0.14
0.13
0.23
0.27
0.34
-0.06
-1.00
-1.67
-1.85
-1.72
-1.36
-0.89
-0.63
-0.61
-0.55
-0.48
-0.47
-0.45
-0.47
-0.50
-0.45
-0.43
-0.48
-0.44
-0.38
-0.34
-0.40
-0.50
-0.58
-0.54
-0.38
-0.33
-0.53
-0.52
-0.51
-0.58
-0.63
-0.63
-0.64
-0.63
-0.56
-0.56
-0.70
-0.83
-0.83
-0.77
-0.74
-0.77
-0.83
-0.94
-0.96
-0.94
-0.90
-0.90
-0.89
-0.86
-0.88
-0.90
-0.91
-0.87
-0.83
-0.82
-0.73
-0.63
-0.57
-0.52
-0.39
-0.35
-0.28
-0.29
-0.39
-0.38
-0.32
-0.36
-0.37
-0.35
-0.35
-0.30
-0.29
-0.33
-0.28
-0.26
-0.36
-0.35
-0.28
-0.18
-0.31
-0.47
-0.44
-0.38
-0.37
-0.32
-0.33
-0.29
-0.25
-0.21
-0.25
-0.41
-0.49
-0.35
-0.35
-0.38
-0.35
-0.32
-0.27
-0.30
-0.36
-0.35
-0.32
-0.30
-0.30
-0.28
-0.22
-0.21
-0.26
-0.32
-0.39
-0.37
-0.33
-0.31
-0.30
-0.31
-0.29
-0.29
-0.31
-0.29
-0.29
-0.27
-0.23
-0.15
-0.12
-0.22
-0.37
-0.36
-0.29
-0.30
-0.27
-0.25
-0.23
-0.16
-0.17
-0.26
-0.35
-0.34
-0.30
-0.25
-0.23
-0.20
-0.20
-0.21
-0.22
-0.23
-0.24
-0.25
-0.24
-0.21
-0.19
-0.19
-0.19
-0.19
-0.17
-0.15
-0.20
-0.21
-0.23
-0.21
-0.18
-0.14
-0.16
-0.16
-0.12
-0.07
-0.01
0.08
-0.01
-0.02
0.01
0.03
0.06
0.06
0.05
-0.01
-0.03
-0.09
-0.12
-0.14
-0.15
-0.18
-0.20
-0.17
-0.14
-0.08
-0.03
0.01
0.14
0.42
0.70
0.83
0.76
0.19
-0.78
-1.42
-1.53
-1.33
-1.01
-0.67
-0.38
-0.25
-0.18
-0.15
-0.16
-0.13
-0.14
-0.13
-0.16
-0.16
-0.20
-0.19
-0.14
-0.12
-0.13
-0.13
-0.14
-0.16
-0.17
-0.21
-0.18
-0.18
-0.20
-0.21
-0.26
-0.27
-0.27
-0.28
-0.26
-0.28
-0.30
-0.25
-0.25
-0.28
-0.27
-0.27
-0.30
-0.32
-0.33
-0.31
-0.31
-0.31
-0.37
-0.37
-0.31
-0.32
-0.31
-0.28
-0.26
-0.26
-0.22
-0.22
-0.20
-0.18
-0.14
-0.06
-0.06
-0.06
-0.02
0.07
0.10
0.10
0.06
0.04
0.03
0.05
0.09
0.12
0.11
0.04
0.05
0.07
0.09
0.04
0.06
0.09
0.11
0.12
0.07
0.04
0.05
0.06
0.04
0.05
0.07
0.05
0.01
-0.01
-0.02
-0.01
0.04
0.04
0.00
0.04
0.05
0.05
0.01
0.01
0.01
0.02
0.02
0.02
-0.00
0.00
0.00
0.01
0.02
0.00
0.01
-0.00
-0.03
-0.03
-0.03
-0.03
-0.02
-0.05
-0.08
-0.05
-0.03
-0.00
-0.01
-0.00
-0.01
0.01
0.01
-0.02
-0.09
-0.10
-0.07
-0.07
0.03
0.04
-0.05
-0.15
-0.13
-0.07
-0.04
-0.07
-0.05
0.02
0.08
0.11
0.11
0.13
0.14
0.14
0.11
0.12
0.15
0.14
0.07
0.02
-0.00
-0.04
-0.05
-0.04
-0.06
-0.10
-0.08
-0.04
0.01
0.07
0.11
0.27
0.66
1.03
1.20
1.13
0.43
-0.54
-1.12
-1.26
-1.19
-0.99
-0.72
-0.45
-0.29
-0.20
-0.11
-0.11
-0.18
-0.16
-0.11
-0.09
-0.05
-0.07
-0.11
-0.14
-0.14
-0.14
-0.14
-0.12
-0.12
-0.09
-0.08
-0.11
-0.14
-0.12
-0.11
-0.19
-0.21
-0.23
-0.23
-0.25
-0.28
-0.27
-0.34
-0.36
-0.36
-0.41
-0.46
-0.53
-0.50
-0.47
-0.50
-0.50
-0.54
-0.62
-0.63
-0.60
-0.65
-0.65
-0.59
-0.56
-0.60
-0.59
-0.56
-0.50
-0.47
-0.38
-0.36
-0.27
-0.30
-0.27
-0.21
-0.26
-0.27
-0.22
-0.15
-0.12
-0.15
-0.17
-0.14
-0.16
-0.13
-0.09
-0.10
-0.12
-0.13
-0.15
-0.20
-0.27
-0.27
-0.28
-0.33
-0.34
-0.27
-0.21
-0.21
-0.32
-0.34
-0.31
-0.32
-0.30
-0.29
-0.28
-0.25
-0.29
-0.30
-0.29
-0.27
-0.32
-0.34
-0.30
-0.32
-0.33
-0.36
-0.28
-0.27
-0.31
-0.33
-0.33
-0.29
-0.27
-0.34
-0.37
-0.34
-0.31
-0.33
-0.34
-0.34
-0.30
-0.30
-0.35
-0.37
-0.34
-0.30
-0.36
-0.43
-0.46
-0.40
-0.37
-0.33
-0.31
-0.33
-0.33
-0.34
-0.38
-0.37
-0.30
-0.26
-0.17
-0.19
-0.43
-0.42
-0.31
-0.35
-0.34
-0.31
-0.25
-0.20
-0.22
-0.26
-0.27
-0.26
-0.28
-0.28
-0.34
-0.33
-0.28
-0.26
-0.35
-0.53
-0.56
-0.52
-0.39
-0.32
-0.21
0.03
0.36
0.61
0.70
0.61
-0.09
-0.94
-1.46
-1.58
-1.44
-1.31
-1.10
-0.80
-0.60
-0.55
-0.47
-0.49
-0.55
-0.55
-0.56
-0.52
-0.49
-0.52
-0.53
-0.51
-0.47
-0.45
-0.44
-0.48
-0.47
-0.48
-0.46
-0.46
-0.53
-0.62
-0.66
-0.63
-0.59
-0.58
-0.58
-0.57
-0.60
-0.66
-0.74
-0.85
-0.87
-0.90
-0.89
-0.88
-0.87
-0.93
-0.98
-0.97
-0.93
-1.01
-1.07
-1.01
-0.99
-0.99
-1.07
-1.07
-1.00
-0.94
-0.87
-0.84
-0.83
-0.73
-0.65
-0.61
-0.62
-0.60
-0.53
-0.47
-0.45
-0.52
-0.47
-0.44
-0.42
-0.45
-0.42
-0.35
-0.26
-0.29
-0.35
-0.38
-0.45
-0.42
-0.33
-0.30
-0.37
-0.50
-0.49
-0.38
-0.35
-0.34
-0.38
-0.32
-0.29
-0.29
-0.32
-0.32
-0.31
-0.30
-0.33
-0.35
-0.37
-0.31
-0.24
-0.17
-0.26
-0.29
-0.30
-0.34
-0.34
-0.38
-0.41
-0.30
-0.23
-0.30
-0.39
-0.35
-0.31
-0.35
-0.36
-0.37
-0.32
-0.27
-0.25
-0.28
-0.32
-0.31
-0.23
-0.22
-0.21
-0.23
-0.29
-0.30
-0.39
-0.34
-0.25
-0.20
-0.25
-0.29
-0.27
-0.22
-0.30
-0.37
-0.32
-0.27
-0.22
-0.20
-0.21
-0.18
-0.15
-0.06
-0.03
-0.12
-0.21
-0.25
-0.20
-0.18
-0.08
-0.07
-0.17
-0.26
-0.37
-0.37
-0.35
-0.31
-0.26
-0.24
-0.33
-0.32
-0.15
-0.03
0.13
0.47
0.74
0.81
0.47
-0.44
-1.23
-1.58
-1.57
-1.35
-1.00
-0.64
-0.46
-0.49
-0.43
-0.34
-0.32
-0.30
-0.28
-0.36
-0.44
-0.42
-0.39
-0.35
-0.34
-0.36
-0.35
-0.35
-0.35
-0.41
-0.38
-0.30
-0.30
-0.44
-0.46
-0.47
-0.51
-0.54
-0.56
-0.55
-0.53
-0.52
-0.53
-0.60
-0.64
-0.70
-0.77
-0.85
-0.86
-0.83
-0.92
-0.87
-0.92
-0.96
-0.98
-1.03
-1.08
-1.06
-0.99
-1.00
-0.97
-0.94
-0.95
-0.87
-0.76
-0.65
-0.65
-0.63
-0.54
-0.43
-0.42
-0.41
-0.44
-0.40
-0.31
-0.31
-0.28
-0.26
-0.27
-0.23
-0.22
-0.20
-0.20
-0.20
-0.28
-0.29
-0.26
-0.18
-0.20
-0.14
-0.12
-0.26
-0.32
-0.26
-0.25
-0.21
-0.18
-0.22
-0.27
-0.28
-0.26
-0.25
-0.20
-0.22
-0.26
-0.23
-0.20
-0.25
-0.36
-0.39
-0.33
-0.24
-0.22
-0.22
-0.25
-0.25
-0.24
-0.30
-0.28
-0.21
-0.15
-0.18
-0.23
-0.29
-0.29
-0.30
-0.27
-0.20
-0.19
-0.32
-0.31
-0.23
-0.17
-0.19
-0.30
-0.36
-0.32
-0.31
-0.27
-0.18
-0.15
-0.25
-0.28
-0.26
-0.23
-0.24
-0.24
-0.23
-0.24
-0.19
-0.14
-0.13
-0.11
-0.06
-0.04
-0.01
-0.10
-0.14
-0.10
-0.07
-0.12
-0.24
-0.31
-0.30
-0.26
-0.28
-0.35
-0.32
-0.28
-0.26
-0.28
-0.19
-0.07
0.10
0.43
0.67
0.69
0.60
-0.06
-1.02
-1.57
-1.59
-1.33
-0.96
-0.75
-0.58
-0.46
-0.42
-0.35
-0.34
-0.35
-0.39
-0.37
-0.32
-0.32
-0.28
-0.29
-0.26
-0.24
-0.30
-0.36
-0.31
-0.32
-0.40
-0.37
-0.35
-0.39
-0.45
-0.46
-0.43
-0.42
-0.37
-0.39
-0.47
-0.57
-0.58
-0.54
-0.56
-0.60
-0.71
-0.73
-0.73
-0.73
-0.74
-0.83
-0.91
-0.96
-0.93
-0.88
-0.93
-0.95
-0.92
-0.91
-0.96
-0.96
-0.92
-0.87
-0.77
-0.66
-0.57
-0.48
-0.41
-0.42
-0.46
-0.43
-0.33
-0.36
-0.35
-0.29
-0.23
-0.23
-0.28
-0.32
-0.29
-0.24
-0.22
-0.19
-0.18
-0.23
-0.26
-0.26
-0.28
-0.24
-0.22
-0.27
-0.25
-0.24
-0.22
-0.19
-0.22
-0.24
-0.23
-0.22
-0.29
-0.32
-0.27
-0.23
-0.26
-0.32
-0.29
-0.27
-0.21
-0.14
-0.17
-0.34
-0.38
-0.29
-0.30
-0.31
-0.28
-0.27
-0.32
-0.32
-0.28
-0.30
-0.27
-0.24
-0.18
-0.23
-0.27
-0.33
-0.30
-0.27
-0.22
-0.25
-0.33
-0.33
-0.30
-0.29
-0.24
-0.21
-0.25
-0.34
-0.32
-0.27
-0.22
-0.23
-0.33
-0.32
-0.23
-0.17
-0.10
-0.11
-0.16
-0.17
-0.15
-0.13
-0.13
-0.09
-0.10
-0.16
-0.21
-0.22
-0.23
-0.26
-0.29
-0.27
-0.28
-0.25
-0.22
-0.26
-0.19
-0.09
0.14
0.38
0.53
0.60
0.46
-0.18
-0.97
-1.40
-1.48
-1.30
-0.99
-0.71
-0.51
-0.41
-0.36
-0.35
-0.34
-0.34
-0.35
-0.33
-0.31
-0.29
-0.32
-0.32
-0.31
-0.31
-0.30
-0.31
-0.31
-0.34
-0.31
-0.33
-0.34
-0.33
-0.36
-0.34
-0.31
-0.35
-0.39
-0.43
-0.44
-0.45
-0.57
-0.60
-0.61
-0.62
-0.64
-0.65
-0.68
-0.69
-0.72
-0.77
-0.79
-0.85
-0.86
-0.87
-0.89
-0.86
-0.83
-0.81
-0.85
-0.81
-0.75
-0.71
-0.62
-0.54
-0.45
-0.36
-0.27
-0.23
-0.24
-0.20
-0.19
-0.22
-0.19
-0.15
-0.15
-0.16
-0.18
-0.18
-0.20
-0.21
-0.20
-0.22
-0.23
-0.20
-0.21
-0.20
-0.20
-0.20
-0.22
-0.21
-0.19
-0.18
-0.19
-0.18
-0.20
-0.21
-0.25
-0.24
-0.22
-0.19
-0.18
-0.17
-0.12
-0.08
-0.00
0.17
0.41
0.57
0.65
0.56
-0.12
-1.11
-1.56
-1.48
-1.14
-0.75
-0.47
-0.33
-0.21
-0.20
-0.17
-0.11
-0.10
-0.15
-0.16
-0.17
-0.17
-0.12
-0.10
-0.15
-0.17
-0.18
-0.22
-0.21
-0.21
-0.23
-0.22
-0.21
-0.21
-0.25
-0.28
-0.27
-0.30
-0.35
-0.38
-0.37
-0.37
-0.40
-0.45
-0.47
-0.49
-0.53
-0.57
-0.57
-0.61
-0.68
-0.70
-0.68
-0.70
-0.67
-0.60
-0.54
-0.49
-0.38
-0.26
-0.18
-0.16
-0.14
-0.12
-0.08
-0.07
-0.06
-0.06
-0.05
-0.05
-0.04
-0.05
-0.04
-0.07
-0.11
-0.14
-0.13
-0.11
-0.12
-0.18
-0.20
-0.20
-0.20
-0.21
-0.17
-0.18
-0.22
-0.25
-0.24
-0.26
-0.24
-0.24
-0.27
-0.28
-0.25
-0.24
-0.29
-0.32
-0.30
-0.29
-0.21
-0.16
-0.15
-0.11
-0.07
-0.05
-0.01
-0.01
0.01
0.21
0.49
0.79
0.95
0.88
0.24
-0.66
-1.19
-1.33
-1.22
-1.04
-0.74
-0.50
-0.33
-0.25
-0.21
-0.21
-0.24
-0.24
-0.23
-0.23
-0.23
-0.25
-0.21
-0.23
-0.30
-0.34
-0.33
-0.30
-0.30
-0.32
-0.31
-0.34
-0.37
-0.38
-0.36
-0.33
-0.28
-0.25
-0.25
-0.26
-0.28
-0.29
-0.30
-0.35
-0.37
-0.37
-0.37
-0.40
-0.38
-0.44
-0.50
-0.50
-0.51
-0.54
-0.56
-0.56
-0.51
-0.47
-0.44
-0.39
-0.34
-0.36
-0.36
-0.32
-0.28
-0.25
-0.23
-0.22
-0.19
-0.19
-0.17
-0.20
-0.24
-0.25
-0.26
-0.23
-0.17
-0.12
-0.09
-0.08
-0.08
-0.09
-0.08
-0.05
-0.04
-0.05
-0.05
-0.04
0.00
0.07
0.14
0.21
0.26
0.37
0.48
0.52
0.06
-0.75
-1.26
-1.44
-1.44
-1.40
-1.36
-1.36
-1.30
-1.30
-1.28
-1.13
-0.87
-0.62
-0.47
-0.33
-0.24
-0.17
-0.21
-0.24
-0.22
-0.21
-0.12
-0.07
-0.06
-0.06
-0.06
-0.04
-0.06
-0.07
-0.11
-0.17
-0.18
-0.15
-0.11
-0.14
-0.14
-0.19
-0.19
-0.23
-0.27
-0.27
-0.22
-0.21
-0.24
-0.27
-0.27
-0.29
-0.30
-0.28
-0.29
-0.23
-0.17
-0.14
-0.10
-0.11
-0.14
-0.09
-0.04
-0.01
-0.05
-0.06
-0.03
-0.01
-0.03
-0.06
-0.06
-0.05
-0.08
-0.12
-0.12
-0.11
-0.11
-0.17
-0.18
-0.17
-0.18
-0.18
-0.15
-0.13
-0.10
0.03
0.17
0.40
0.65
0.72
0.68
0.30
-0.64
-1.39
-1.57
-1.34
-0.94
-0.65
-0.48
-0.40
-0.35
-0.36
-0.37
-0.35
-0.36
-0.41
-0.45
-0.44
-0.45
-0.42
-0.44
-0.39
-0.31
-0.32
-0.33
-0.33
-0.36
-0.35
-0.33
-0.33
-0.42
-0.48
-0.51
-0.52
-0.53
-0.58
-0.60
-0.58
-0.60
-0.63
-0.66
-0.70
-0.71
-0.72
-0.76
-0.80
-0.84
-0.82
-0.83
-0.85
-0.86
-0.83
-0.78
-0.75
-0.68
-0.62
-0.56
-0.50
-0.47
-0.47
-0.45
-0.41
-0.40
-0.35
-0.25
-0.19
-0.19
-0.17
-0.20
-0.20
-0.19
-0.21
-0.20
-0.19
-0.16
-0.17
-0.20
-0.24
-0.23
-0.20
-0.19
-0.17
-0.16
-0.14
-0.09
-0.04
-0.04
-0.00
-0.02
0.06
0.32
0.49
0.53
0.28
-0.58
-1.47
-1.77
-1.66
-1.28
-0.86
-0.58
-0.45
-0.37
-0.38
-0.33
-0.27
-0.20
-0.14
-0.11
-0.16
-0.14
-0.11
-0.13
-0.14
-0.16
-0.14
-0.13
-0.17
-0.21
-0.23
-0.26
-0.28
-0.31
-0.34
-0.35
-0.37
-0.35
-0.38
-0.37
-0.41
-0.42
-0.42
-0.44
-0.45
-0.49
-0.53
-0.55
-0.58
-0.62
-0.66
-0.70
-0.67
-0.68
-0.66
-0.60
-0.55
-0.52
-0.46
-0.38
-0.29
-0.17
-0.10
-0.04
0.01
-0.01
-0.00
-0.01
-0.03
-0.04
-0.03
-0.03
-0.02
-0.04
-0.06
-0.08
-0.06
-0.10
-0.13
-0.13
-0.11
-0.09
-0.09
-0.08
-0.09
-0.09
-0.08
-0.11
-0.15
-0.16
-0.16
-0.14
-0.21
-0.27
-0.29
-0.30
-0.30
-0.31
-0.35
-0.34
-0.32
-0.30
-0.35
-0.33
-0.26
-0.19
-0.18
-0.19
-0.16
-0.11
-0.09
-0.01
0.04
0.25
0.50
0.71
0.75
0.57
-0.18
-1.18
-1.62
-1.62
-1.32
-0.89
-0.57
-0.35
-0.22
-0.16
-0.14
-0.13
-0.16
-0.20
-0.25
-0.28
-0.27
-0.25
-0.25
-0.27
-0.29
-0.30
-0.34
-0.37
-0.39
-0.39
-0.43
-0.45
-0.38
-0.35
-0.32
-0.35
-0.38
-0.38
-0.40
-0.43
-0.42
-0.41
-0.44
-0.47
-0.50
-0.54
-0.55
-0.56
-0.57
-0.58
-0.60
-0.62
-0.59
-0.55
-0.56
-0.54
-0.50
-0.47
-0.46
-0.44
-0.41
-0.37
-0.35
-0.32
-0.32
-0.31
-0.25
-0.24
-0.28
-0.30
-0.30
-0.34
-0.32
-0.26
-0.22
-0.17
-0.16
-0.15
-0.14
-0.21
-0.21
-0.23
-0.23
-0.21
-0.23
-0.24
-0.25
-0.25
-0.23
-0.20
-0.12
0.04
0.23
0.28
0.28
0.28
0.19
0.02
-0.46
-1.07
-1.14
-1.00
-0.72
-0.54
-0.41
-0.39
-0.37
-0.39
-0.43
-0.43
-0.41
-0.40
-0.37
-0.38
-0.34
-0.31
-0.34
-0.36
-0.36
-0.37
-0.36
-0.35
-0.37
-0.37
-0.40
-0.42
-0.45
-0.47
-0.51
-0.50
-0.53
-0.57
-0.62
-0.70
-0.77
-0.79
-0.80
-0.80
-0.83
-0.86
-0.91
-0.93
-0.96
-0.98
-0.98
-0.97
-0.96
-0.96
-0.88
-0.81
-0.77
-0.76
-0.72
-0.67
-0.54
-0.44
-0.37
-0.31
-0.30
-0.26
-0.25
-0.15
-0.02
0.15
0.36
0.62
0.82
0.71
-0.24
-1.25
-1.52
-1.42
-1.15
-0.76
-0.52
-0.37
-0.33
-0.35
-0.33
-0.32
-0.32
-0.34
-0.33
-0.35
-0.34
-0.32
-0.33
-0.35
-0.36
-0.37
-0.33
-0.30
-0.35
-0.36
-0.38
-0.37
-0.35
-0.31
-0.32
-0.37
-0.37
-0.38
-0.38
-0.38
-0.44
-0.43
-0.47
-0.49
-0.51
-0.55
-0.54
-0.54
-0.52
-0.52
-0.53
-0.52
-0.49
-0.45
-0.40
-0.35
-0.32
-0.28
-0.24
-0.25
-0.28
-0.28
-0.29
-0.28
-0.30
-0.33
-0.31
-0.32
-0.29
-0.28
-0.31
-0.33
-0.34
-0.36
-0.32
-0.29
-0.30
-0.30
-0.28
-0.30
-0.28
-0.31
-0.31
-0.30
-0.33
-0.32
-0.32
-0.35
-0.38
-0.39
-0.41
-0.38
-0.35
-0.35
-0.37
-0.40
-0.39
-0.41
-0.40
-0.40
-0.42
-0.40
-0.39
-0.38
-0.41
-0.41
-0.41
-0.37
-0.29
-0.16
0.05
0.30
0.51
0.57
0.37
-0.49
-1.46
-1.90
-1.87
-1.45
-0.97
-0.63
-0.47
-0.43
-0.39
-0.39
-0.34
-0.36
-0.35
-0.38
-0.40
-0.36
-0.38
-0.43
-0.42
-0.39
-0.39
-0.43
-0.41
-0.41
-0.42
-0.44
-0.49
-0.50
-0.50
-0.51
-0.51
-0.53
-0.50
-0.53
-0.57
-0.57
-0.57
-0.57
-0.56
-0.52
-0.47
-0.50
-0.52
-0.55
-0.56
-0.52
-0.42
-0.37
-0.36
-0.35
-0.28
-0.26
-0.30
-0.31
-0.28
-0.23
-0.18
-0.17
-0.14
-0.14
-0.19
-0.22
-0.20
-0.21
-0.26
-0.29
-0.28
-0.30
-0.29
-0.34
-0.35
-0.35
-0.41
-0.39
-0.37
-0.40
-0.41
-0.44
-0.37
-0.28
-0.23
-0.08
0.19
0.39
0.50
-0.03
-1.09
-1.81
-1.87
-1.63
-1.23
-0.86
-0.56
-0.39
-0.32
-0.33
-0.36
-0.35
-0.37
-0.37
-0.38
-0.42
-0.41
-0.39
-0.41
-0.40
-0.45
-0.46
-0.48
-0.46
-0.46
-0.46
-0.49
-0.48
-0.50
-0.49
-0.54
-0.62
-0.67
-0.66
-0.64
-0.67
-0.71
-0.79
-0.80
-0.80
-0.79
-0.80
-0.86
-0.81
-0.73
-0.70
-0.69
-0.65
-0.60
-0.51
-0.44
-0.36
-0.30
-0.24
-0.22
-0.23
-0.22
-0.22
-0.27
-0.27
-0.26
-0.24
-0.28
-0.28
-0.31
-0.31
-0.29
-0.25
-0.12
0.13
0.41
0.66
0.80
0.81
0.29
-0.94
-1.73
-1.88
-1.68
-1.26
-0.84
-0.64
-0.56
-0.54
-0.54
-0.45
-0.36
-0.33
-0.34
-0.39
-0.35
-0.34
-0.41
-0.42
-0.42
-0.39
-0.36
-0.39
-0.38
-0.37
-0.40
-0.39
-0.40
-0.49
-0.49
-0.47
-0.48
-0.49
-0.56
-0.58
-0.61
-0.63
-0.64
-0.69
-0.67
-0.65
-0.65
-0.67
-0.67
-0.70
-0.73
-0.70
-0.71
-0.65
-0.55
-0.52
-0.48
-0.42
-0.34
-0.32
-0.27
-0.29
-0.31
-0.33
-0.29
-0.29
-0.31
-0.31
-0.34
-0.34
-0.33
-0.34
-0.30
-0.30
-0.31
-0.32
-0.34
-0.31
-0.31
-0.34
-0.32
-0.33
-0.36
-0.35
-0.32
-0.29
-0.29
-0.29
-0.17
0.12
0.37
0.46
0.16
-0.76
-1.65
-1.96
-1.89
-1.61
-1.12
-0.79
-0.60
-0.47
-0.39
-0.33
-0.40
-0.42
-0.37
-0.36
-0.39
-0.41
-0.38
-0.37
-0.37
-0.36
-0.39
-0.39
-0.37
-0.34
-0.32
-0.36
-0.38
-0.41
-0.42
-0.45
-0.47
-0.51
-0.56
-0.55
-0.52
-0.53
-0.57
-0.60
-0.58
-0.58
-0.63
-0.67
-0.66
-0.63
-0.59
-0.63
-0.67
-0.66
-0.67
-0.64
-0.53
-0.45
-0.42
-0.33
-0.29
-0.26
-0.18
-0.22
-0.26
-0.21
-0.19
-0.17
-0.20
-0.19
-0.22
-0.20
-0.21
-0.20
-0.19
-0.14
-0.09
-0.09
0.04
0.15
0.37
0.62
0.73
0.75
0.58
-0.37
-1.44
-1.77
-1.65
-1.29
-0.89
-0.59
-0.46
-0.36
-0.29
-0.27
-0.22
-0.21
-0.30
-0.36
-0.34
-0.31
-0.28
-0.24
-0.18
-0.19
-0.21
-0.26
-0.28
-0.28
-0.31
-0.32
-0.26
-0.27
-0.33
-0.37
-0.38
-0.42
-0.45
-0.46
-0.46
-0.47
-0.49
-0.51
-0.52
-0.54
-0.56
-0.54
-0.50
-0.46
-0.45
-0.46
-0.44
-0.41
-0.38
-0.34
-0.33
-0.29
-0.22
-0.16
-0.12
-0.12
-0.14
-0.13
-0.09
-0.05
-0.04
-0.09
-0.09
-0.08
-0.06
-0.07
-0.09
-0.09
-0.04
-0.04
-0.10
-0.06
-0.03
-0.02
-0.05
-0.09
-0.10
-0.11
-0.12
-0.15
-0.14
-0.16
-0.18
-0.18
-0.20
-0.19
-0.22
-0.26
-0.25
-0.25
-0.24
-0.25
-0.25
-0.26
-0.25
-0.28
-0.27
-0.21
-0.17
-0.20
-0.18
-0.15
-0.10
-0.04
0.02
0.11
0.36
0.65
0.82
0.85
0.42
-0.61
-1.41
-1.59
-1.44
-1.07
-0.67
-0.43
-0.28
-0.20
-0.19
-0.19
-0.17
-0.13
-0.14
-0.16
-0.16
-0.15
-0.17
-0.19
-0.18
-0.22
-0.21
-0.22
-0.24
-0.29
-0.32
-0.36
-0.41
-0.43
-0.44
-0.44
-0.38
-0.36
-0.35
-0.33
-0.30
-0.32
-0.26
-0.23
-0.17
-0.17
-0.15
-0.13
-0.08
-0.09
-0.10
-0.09
-0.05
-0.04
0.01
0.01
0.03
0.07
0.09
0.13
0.13
0.15
0.15
0.18
0.19
0.21
0.16
0.10
0.05
0.04
0.01
0.01
0.03
-0.00
0.01
-0.01
-0.08
-0.12
-0.10
-0.13
-0.15
-0.15
-0.16
-0.20
-0.27
-0.35
-0.38
-0.42
-0.43
-0.39
-0.31
-0.19
-0.03
0.07
0.22
0.39
0.57
0.69
0.60
-0.09
-1.17
-1.63
-1.45
-0.99
-0.57
-0.39
-0.27
-0.17
-0.12
-0.13
-0.16
-0.16
-0.15
-0.15
-0.18
-0.16
-0.14
-0.13
-0.15
-0.17
-0.21
-0.22
-0.22
-0.25
-0.27
-0.27
-0.29
-0.34
-0.35
-0.39
-0.44
-0.53
-0.61
-0.62
-0.63
-0.66
-0.65
-0.69
-0.72
-0.72
-0.76
-0.81
-0.78
-0.74
-0.73
-0.71
-0.69
-0.67
-0.61
-0.57
-0.56
-0.49
-0.40
-0.32
-0.23
-0.14
-0.07
0.06
0.31
0.64
0.87
0.43
-0.75
-1.49
-1.49
-1.26
-0.95
-0.54
-0.32
-0.20
-0.11
-0.06
-0.03
-0.04
-0.05
-0.06
-0.04
-0.02
-0.04
-0.04
-0.03
-0.05
-0.03
-0.03
-0.05
-0.03
-0.04
-0.07
-0.07
-0.03
-0.04
-0.05
-0.06
-0.09
-0.12
-0.12
-0.12
-0.13
-0.14
-0.13
-0.15
-0.17
-0.15
-0.18
-0.17
-0.14
-0.13
-0.11
-0.08
-0.03
-0.03
-0.06
-0.06
-0.04
-0.03
-0.01
-0.03
-0.08
-0.08
-0.11
-0.13
-0.17
-0.18
-0.17
-0.16
-0.14
-0.13
-0.16
-0.22
-0.23
-0.20
-0.21
-0.25
-0.24
-0.22
-0.21
-0.19
-0.23
-0.23
-0.23
-0.20
-0.21
-0.21
-0.22
-0.23
-0.21
-0.20
-0.22
-0.26
-0.25
-0.27
-0.25
-0.22
-0.21
-0.25
-0.27
-0.28
-0.28
-0.27
-0.24
-0.22
-0.22
-0.23
-0.27
-0.27
-0.25
-0.25
-0.25
-0.29
-0.31
-0.27
-0.25
-0.27
-0.26
-0.25
-0.27
-0.30
-0.29
-0.26
-0.23
-0.23
-0.27
-0.27
-0.26
-0.29
-0.29
-0.27
-0.27
-0.26
-0.23
-0.24
-0.30
-0.33
-0.30
-0.30
-0.29
-0.30
-0.28
-0.29
