0.000000	0.060057
0.002000	0.064323
0.004000	0.068589
0.006000	0.073524
0.008000	0.077790
0.010000	0.080550
0.012000	0.083561
0.014000	0.085987
0.016000	0.088747
0.018000	0.090002
0.020000	0.090002
0.022000	0.090002
0.024000	0.089416
0.026000	0.088496
0.028000	0.087576
0.030000	0.085987
0.032000	0.082975
0.034000	0.080550
0.036000	0.078375
0.038000	0.076535
0.040000	0.076284
0.042000	0.079630
0.044000	0.085987
0.046000	0.094853
0.048000	0.104639
0.050000	0.114677
0.052000	0.125383
0.054000	0.133915
0.056000	0.138850
0.058000	0.140690
0.060000	0.139770
0.062000	0.136341
0.064000	0.131489
0.066000	0.127558
0.068000	0.125049
0.070000	0.123292
0.072000	0.122372
0.074000	0.121703
0.076000	0.120197
0.078000	0.116266
0.080000	0.110411
0.082000	0.102799
0.084000	0.094602
0.086000	0.087576
0.088000	0.081135
0.090000	0.076535
0.092000	0.074109
0.094000	0.074109
0.096000	0.075949
0.098000	0.078710
0.100000	0.082055
0.102000	0.084816
0.104000	0.086656
0.106000	0.086321
0.108000	0.086321
0.110000	0.086656
0.112000	0.087576
0.114000	0.088496
0.116000	0.090002
0.118000	0.091842
0.120000	0.094602
0.122000	0.096108
0.124000	0.098533
0.126000	0.100374
0.128000	0.102465
0.130000	0.103719
0.132000	0.104639
0.134000	0.105225
0.136000	0.104639
0.138000	0.106145
0.140000	0.113506
0.142000	0.132075
0.144000	0.166620
0.146000	0.215720
0.148000	0.278871
0.150000	0.350638
0.152000	0.425417
0.154000	0.498020
0.156000	0.559081
0.158000	0.598394
0.160000	0.608180
0.162000	0.583421
0.164000	0.525790
0.166000	0.439134
0.168000	0.329225
0.170000	0.206602
0.172000	0.082641
0.174000	-0.029610
0.176000	-0.123041
0.178000	-0.191379
0.180000	-0.230776
0.182000	-0.241398
0.184000	-0.226761
0.186000	-0.189873
0.188000	-0.140105
0.190000	-0.085485
0.192000	-0.032705
0.194000	0.012463
0.196000	0.049099
0.198000	0.075029
0.200000	0.091507
0.202000	0.100959
0.204000	0.106145
0.206000	0.109825
0.208000	0.111666
0.210000	0.112920
0.212000	0.115011
0.214000	0.119612
0.216000	0.124463
0.218000	0.130235
0.220000	0.134584
0.222000	0.139436
0.224000	0.144956
0.226000	0.149473
0.228000	0.153739
0.230000	0.157754
0.232000	0.162020
0.234000	0.165031
0.236000	0.167540
0.238000	0.168126
0.240000	0.166871
0.242000	0.163860
0.244000	0.160765
0.246000	0.157168
0.248000	0.152233
0.250000	0.146462
0.252000	0.140690
0.254000	0.136090
0.256000	0.133664
0.258000	0.131489
0.260000	0.129984
0.262000	0.129398
0.264000	0.128478
0.266000	0.129649
0.268000	0.131155
0.270000	0.134250
0.272000	0.137595
0.274000	0.140941
0.276000	0.145876
0.278000	0.151982
0.280000	0.158674
0.282000	0.165951
0.284000	0.172977
0.286000	0.180589
0.288000	0.188870
0.290000	0.195896
0.292000	0.202922
0.294000	0.208693
0.296000	0.213879
0.298000	0.218145
0.300000	0.221826
0.302000	0.225506
0.304000	0.227597
0.306000	0.230943
0.308000	0.236212
0.310000	0.242569
0.312000	0.251101
0.314000	0.261808
0.316000	0.271594
0.318000	0.282217
0.320000	0.290498
0.322000	0.294429
0.324000	0.292589
0.326000	0.284057
0.328000	0.269168
0.330000	0.246835
0.332000	0.219651
0.334000	0.187949
0.336000	0.155328
0.338000	0.124212
0.340000	0.096359
0.342000	0.073858
0.344000	0.057297
0.346000	0.045168
0.348000	0.037807
0.350000	0.035047
0.352000	0.035633
0.354000	0.037807
0.356000	0.039648
0.358000	0.040819
0.360000	0.041739
0.362000	0.041488
0.364000	0.042073
0.366000	0.042408
0.368000	0.043328
0.370000	0.045419
0.372000	0.047845
0.374000	0.051525
0.376000	0.055540
0.378000	0.059137
0.380000	0.062566
0.382000	0.063737
0.384000	0.064323
0.386000	0.063737
0.388000	0.062566
0.390000	0.058551
0.392000	0.054871
0.394000	0.050605
0.396000	0.046674
0.398000	0.044248
0.400000	0.041739
0.402000	0.040233
0.404000	0.040233
0.406000	0.039648
0.408000	0.040568
0.410000	0.042659
0.412000	0.045419
0.414000	0.048765
0.416000	0.052445
0.418000	0.057966
0.420000	0.064072
0.422000	0.069843
0.424000	0.074109
0.426000	0.078124
0.428000	0.080550
0.430000	0.080801
0.432000	0.079044
0.434000	0.075615
0.436000	0.071349
0.438000	0.067418
0.440000	0.065243
0.442000	0.063737
0.444000	0.064323
0.446000	0.066832
0.448000	0.072269
0.450000	0.078375
0.452000	0.085987
0.454000	0.093013
0.456000	0.100039
0.458000	0.105894
0.460000	0.109240
0.462000	0.110411
0.464000	0.109825
0.466000	0.107651
0.468000	0.105225
0.470000	0.103134
0.472000	0.101294
0.474000	0.101879
0.476000	0.102799
0.478000	0.105225
0.480000	0.108571
0.482000	0.111666
0.484000	0.113171
0.486000	0.112920
0.488000	0.111331
0.490000	0.108905
0.492000	0.106145
0.494000	0.103134
0.496000	0.101294
0.498000	0.101294
0.500000	0.102799
0.502000	0.105560
0.504000	0.109240
0.506000	0.112251
0.508000	0.115011
0.510000	0.117772
0.512000	0.118692
0.514000	0.119277
0.516000	0.119277
0.518000	0.119863
0.520000	0.120197
0.522000	0.121117
0.524000	0.122623
0.526000	0.123878
0.528000	0.124798
0.530000	0.124463
0.532000	0.122958
0.534000	0.119277
0.536000	0.113506
0.538000	0.106480
0.540000	0.098199
0.542000	0.090336
0.544000	0.083310
0.546000	0.077790
0.548000	0.073524
0.550000	0.070178
0.552000	0.068338
0.554000	0.068589
0.556000	0.070178
0.558000	0.072269
0.560000	0.073858
0.562000	0.076535
0.564000	0.079881
0.566000	0.083561
0.568000	0.086321
0.570000	0.090002
0.572000	0.094268
0.574000	0.097948
0.576000	0.101294
0.578000	0.105225
0.580000	0.108905
0.582000	0.112586
0.584000	0.115011
0.586000	0.116852
0.588000	0.118357
0.590000	0.117772
0.592000	0.115346
0.594000	0.110745
0.596000	0.104974
0.598000	0.098199
0.600000	0.090922
0.602000	0.084481
0.604000	0.078375
0.606000	0.073189
0.608000	0.069509
0.610000	0.067752
0.612000	0.067083
0.614000	0.067083
0.616000	0.068923
0.618000	0.070429
0.620000	0.072269
0.622000	0.074695
0.624000	0.077790
0.626000	0.079630
0.628000	0.079295
0.630000	0.077204
0.632000	0.073524
0.634000	0.068923
0.636000	0.062817
0.638000	0.056460
0.640000	0.050354
0.642000	0.044834
0.644000	0.043579
0.646000	0.042993
0.648000	0.045419
0.650000	0.047845
0.652000	0.050354
0.654000	0.051860
0.656000	0.054285
0.658000	0.063152
0.660000	0.081721
0.662000	0.115346
0.664000	0.165951
0.666000	0.229772
0.668000	0.302710
0.670000	0.379328
0.672000	0.454358
0.674000	0.517509
0.676000	0.558412
0.678000	0.567612
0.680000	0.541683
0.682000	0.480287
0.684000	0.389031
0.686000	0.273685
0.688000	0.144287
0.690000	0.014638
0.692000	-0.104723
0.694000	-0.204511
0.696000	-0.277115
0.698000	-0.318602
0.700000	-0.328723
0.702000	-0.308900
0.704000	-0.266492
0.706000	-0.208191
0.708000	-0.143200
0.710000	-0.079044
0.712000	-0.022919
0.714000	0.022584
0.716000	0.057046
0.718000	0.080215
0.720000	0.095522
0.722000	0.104974
0.724000	0.108905
0.726000	0.111080
0.728000	0.112000
0.730000	0.113171
0.732000	0.112920
0.734000	0.113506
0.736000	0.112920
0.738000	0.110411
0.740000	0.107400
0.742000	0.104305
0.744000	0.101294
0.746000	0.098533
0.748000	0.096693
0.750000	0.095773
0.752000	0.097279
0.754000	0.099119
0.756000	0.103385
0.758000	0.108320
0.760000	0.116266
0.762000	0.124798
0.764000	0.132409
0.766000	0.139770
0.768000	0.146462
0.770000	0.150728
0.772000	0.153739
0.774000	0.154408
0.776000	0.154073
0.778000	0.152819
0.780000	0.151982
0.782000	0.152233
0.784000	0.154408
0.786000	0.157754
0.788000	0.162605
0.790000	0.167206
0.792000	0.172726
0.794000	0.178498
0.796000	0.184018
0.798000	0.190124
0.800000	0.195310
0.802000	0.199827
0.804000	0.204762
0.806000	0.209279
0.808000	0.213879
0.810000	0.219400
0.812000	0.224920
0.814000	0.229437
0.816000	0.234623
0.818000	0.239224
0.820000	0.245330
0.822000	0.251770
0.824000	0.259382
0.826000	0.267579
0.828000	0.277366
0.830000	0.288658
0.832000	0.299615
0.834000	0.310322
0.836000	0.319522
0.838000	0.325294
0.840000	0.327385
0.842000	0.324374
0.844000	0.315842
0.846000	0.302124
0.848000	0.283137
0.850000	0.259047
0.852000	0.232783
0.854000	0.205013
0.856000	0.177912
0.858000	0.152568
0.860000	0.130569
0.862000	0.112586
0.864000	0.098868
0.866000	0.090002
0.868000	0.085150
0.870000	0.082975
0.872000	0.083896
0.874000	0.085987
0.876000	0.089416
0.878000	0.091842
0.880000	0.093933
0.882000	0.095188
0.884000	0.095773
0.886000	0.095188
0.888000	0.094268
0.890000	0.092762
0.892000	0.090587
0.894000	0.087827
0.896000	0.085150
0.898000	0.081470
0.900000	0.079630
0.902000	0.078375
0.904000	0.077455
0.906000	0.078124
0.908000	0.079044
0.910000	0.080801
0.912000	0.081721
0.914000	0.083310
0.916000	0.084230
0.918000	0.084481
0.920000	0.083896
0.922000	0.082975
0.924000	0.081470
0.926000	0.079295
0.928000	0.077455
0.930000	0.075364
0.932000	0.073189
0.934000	0.071349
0.936000	0.069843
0.938000	0.068338
0.940000	0.066163
0.942000	0.064657
0.944000	0.063403
0.946000	0.063737
0.948000	0.064657
0.950000	0.066832
0.952000	0.068923
0.954000	0.072269
0.956000	0.076869
0.958000	0.081135
0.960000	0.084230
0.962000	0.086907
0.964000	0.088496
0.966000	0.088496
0.968000	0.088161
0.970000	0.086656
0.972000	0.084481
0.974000	0.081470
0.976000	0.078375
0.978000	0.075615
0.980000	0.074695
0.982000	0.073858
0.984000	0.073189
0.986000	0.073524
0.988000	0.074109
0.990000	0.075949
0.992000	0.078375
0.994000	0.080215
0.996000	0.082390
0.998000	0.084816
1.000000	0.087576
1.002000	0.090002
1.004000	0.090587
1.006000	0.089416
1.008000	0.087576
1.010000	0.085987
1.012000	0.084230
1.014000	0.082055
1.016000	0.080215
1.018000	0.078124
1.020000	0.076869
1.022000	0.076535
1.024000	0.076535
1.026000	0.076535
1.028000	0.076535
1.030000	0.076535
1.032000	0.076869
1.034000	0.077455
1.036000	0.079295
1.038000	0.081135
1.040000	0.084230
1.042000	0.086907
1.044000	0.088747
1.046000	0.089667
1.048000	0.090002
1.050000	0.088747
1.052000	0.087576
1.054000	0.086321
1.056000	0.084816
1.058000	0.083896
1.060000	0.084816
1.062000	0.086907
1.064000	0.090336
1.066000	0.093682
1.068000	0.097948
1.070000	0.102799
1.072000	0.108905
1.074000	0.116517
1.076000	0.123543
1.078000	0.129649
1.080000	0.135170
1.082000	0.141527
1.084000	0.148553
1.086000	0.154073
1.088000	0.159845
1.090000	0.164780
1.092000	0.169046
1.094000	0.174566
1.096000	0.177243
1.098000	0.177243
1.100000	0.174817
1.102000	0.168711
1.104000	0.160765
1.106000	0.150393
1.108000	0.138516
1.110000	0.127558
1.112000	0.116852
1.114000	0.108320
1.116000	0.102799
1.118000	0.099453
1.120000	0.098533
1.122000	0.097948
1.124000	0.098868
1.126000	0.099119
1.128000	0.099119
1.130000	0.099119
1.132000	0.099788
1.134000	0.099119
1.136000	0.097279
1.138000	0.095773
1.140000	0.093933
1.142000	0.091842
1.144000	0.088747
1.146000	0.085401
1.148000	0.082641
1.150000	0.080215
1.152000	0.077790
1.154000	0.074695
1.156000	0.074109
1.158000	0.074109
1.160000	0.075615
1.162000	0.077455
1.164000	0.080215
1.166000	0.081721
1.168000	0.080801
1.170000	0.081721
1.172000	0.089667
1.174000	0.110160
1.176000	0.145876
1.178000	0.197401
1.180000	0.262393
1.182000	0.335666
1.184000	0.410444
1.186000	0.481542
1.188000	0.537417
1.190000	0.570373
1.192000	0.571544
1.194000	0.538588
1.196000	0.473596
1.198000	0.381754
1.200000	0.271260
1.202000	0.149222
1.204000	0.028356
1.206000	-0.081554
1.208000	-0.172726
1.210000	-0.239558
1.212000	-0.279540
1.214000	-0.293342
1.216000	-0.280795
1.218000	-0.247254
1.220000	-0.198070
1.222000	-0.142530
1.224000	-0.087660
1.226000	-0.038477
1.228000	0.000920
1.230000	0.029861
1.232000	0.049099
1.234000	0.059471
1.236000	0.063152
1.238000	0.061312
1.240000	0.058217
1.242000	0.054285
1.244000	0.051525
1.246000	0.049685
1.248000	0.048514
1.250000	0.048514
1.252000	0.049685
1.254000	0.050940
1.256000	0.052111
1.258000	0.053951
1.260000	0.055205
1.262000	0.055540
1.264000	0.055791
1.266000	0.055540
1.268000	0.055205
1.270000	0.054620
1.272000	0.053951
1.274000	0.053700
1.276000	0.054285
1.278000	0.055791
1.280000	0.059137
1.282000	0.061897
1.284000	0.064323
1.286000	0.067083
1.288000	0.069258
1.290000	0.070429
1.292000	0.071098
1.294000	0.070763
1.296000	0.069509
1.298000	0.068003
1.300000	0.067083
1.302000	0.067752
1.304000	0.070429
1.306000	0.073189
1.308000	0.076535
1.310000	0.079630
1.312000	0.082975
1.314000	0.087576
1.316000	0.092427
1.318000	0.097028
1.320000	0.101879
1.322000	0.107400
1.324000	0.113506
1.326000	0.120532
1.328000	0.128144
1.330000	0.135504
1.332000	0.143116
1.334000	0.150142
1.336000	0.157168
1.338000	0.164445
1.340000	0.171806
1.342000	0.180338
1.344000	0.190710
1.346000	0.201416
1.348000	0.211788
1.350000	0.220571
1.352000	0.227346
1.354000	0.231277
1.356000	0.229437
1.358000	0.220905
1.360000	0.205933
1.362000	0.183349
1.364000	0.157168
1.366000	0.126889
1.368000	0.095188
1.370000	0.064323
1.372000	0.036553
1.374000	0.014303
1.376000	-0.001589
1.378000	-0.011292
1.380000	-0.014052
1.382000	-0.013467
1.384000	-0.009201
1.386000	-0.002175
1.388000	0.005186
1.390000	0.011878
1.392000	0.017064
1.394000	0.020409
1.396000	0.022249
1.398000	0.023755
1.400000	0.023755
1.402000	0.023504
1.404000	0.022835
1.406000	0.020995
1.408000	0.019489
1.410000	0.018235
1.412000	0.017984
1.414000	0.017398
1.416000	0.017398
1.418000	0.017649
1.420000	0.018235
1.422000	0.019489
1.424000	0.020409
1.426000	0.020995
1.428000	0.022835
1.430000	0.024675
1.432000	0.027101
1.434000	0.028941
1.436000	0.029276
1.438000	0.027435
1.440000	0.025595
1.442000	0.022835
1.444000	0.019489
1.446000	0.015223
1.448000	0.010372
1.450000	0.005437
1.452000	0.003011
1.454000	0.001757
1.456000	0.003011
1.458000	0.005771
1.460000	0.009703
1.462000	0.013049
1.464000	0.017064
1.466000	0.020075
1.468000	0.023170
1.470000	0.026515
1.472000	0.029527
1.474000	0.030781
1.476000	0.030781
1.478000	0.029861
1.480000	0.028690
1.482000	0.025930
1.484000	0.023170
1.486000	0.020075
1.488000	0.018235
1.490000	0.017064
1.492000	0.016729
1.494000	0.018904
1.496000	0.022249
1.498000	0.025930
1.500000	0.031367
1.502000	0.036302
1.504000	0.041488
1.506000	0.044499
1.508000	0.046005
1.510000	0.047594
1.512000	0.048765
1.514000	0.049099
1.516000	0.047594
1.518000	0.046674
1.520000	0.044834
1.522000	0.043579
1.524000	0.042659
1.526000	0.042993
1.528000	0.042993
1.530000	0.043328
1.532000	0.045168
1.534000	0.047259
1.536000	0.051860
1.538000	0.056460
1.540000	0.061646
1.542000	0.066497
1.544000	0.071098
1.546000	0.074695
1.548000	0.076869
1.550000	0.079044
1.552000	0.080215
1.554000	0.080215
1.556000	0.079630
1.558000	0.079881
1.560000	0.080215
1.562000	0.080801
1.564000	0.081721
1.566000	0.083561
1.568000	0.085987
1.570000	0.087827
1.572000	0.090587
1.574000	0.093682
1.576000	0.096693
1.578000	0.101294
1.580000	0.106814
1.582000	0.112000
1.584000	0.114426
1.586000	0.116517
1.588000	0.118357
1.590000	0.118692
1.592000	0.115931
1.594000	0.111331
1.596000	0.106480
1.598000	0.102214
1.600000	0.100039
1.602000	0.099453
1.604000	0.099788
1.606000	0.100959
1.608000	0.103385
1.610000	0.106145
1.612000	0.109240
1.614000	0.111080
1.616000	0.111080
1.618000	0.109825
1.620000	0.107985
1.622000	0.106814
1.624000	0.105560
1.626000	0.104639
1.628000	0.104639
1.630000	0.105560
1.632000	0.107651
1.634000	0.110160
1.636000	0.112586
1.638000	0.114677
1.640000	0.115931
1.642000	0.115931
1.644000	0.116266
1.646000	0.116266
1.648000	0.115931
1.650000	0.115011
1.652000	0.112586
1.654000	0.110411
1.656000	0.107985
1.658000	0.104054
1.660000	0.099453
1.662000	0.093933
1.664000	0.088496
1.666000	0.083310
1.668000	0.079881
1.670000	0.077455
1.672000	0.077204
1.674000	0.079295
1.676000	0.084230
1.678000	0.090922
1.680000	0.099119
1.682000	0.107985
1.684000	0.115931
1.686000	0.122623
1.688000	0.127558
1.690000	0.130235
1.692000	0.131155
1.694000	0.129984
1.696000	0.127558
1.698000	0.124798
1.700000	0.121452
1.702000	0.119277
1.704000	0.118106
1.706000	0.118692
1.708000	0.120532
1.710000	0.124463
1.712000	0.130569
1.714000	0.139436
1.716000	0.149222
1.718000	0.158005
1.720000	0.164111
1.722000	0.166871
1.724000	0.167206
1.726000	0.162605
1.728000	0.154994
1.730000	0.144287
1.732000	0.132409
1.734000	0.120197
1.736000	0.109491
1.738000	0.102214
1.740000	0.098199
1.742000	0.097613
1.744000	0.099453
1.746000	0.103134
1.748000	0.106814
1.750000	0.111666
1.752000	0.116517
1.754000	0.120783
1.756000	0.123878
1.758000	0.125969
1.760000	0.126638
1.762000	0.126638
1.764000	0.125718
1.766000	0.123878
1.768000	0.122038
1.770000	0.120783
1.772000	0.119863
1.774000	0.119612
1.776000	0.119863
1.778000	0.121117
1.780000	0.122038
1.782000	0.123543
1.784000	0.124212
1.786000	0.124463
1.788000	0.124798
1.790000	0.124463
1.792000	0.123292
1.794000	0.121452
1.796000	0.118357
1.798000	0.118106
1.800000	0.125718
1.802000	0.144622
1.804000	0.179083
1.806000	0.229772
1.808000	0.292924
1.810000	0.362516
1.812000	0.433614
1.814000	0.498606
1.816000	0.548960
1.818000	0.575559
1.820000	0.571293
1.822000	0.533987
1.824000	0.466904
1.826000	0.374142
1.828000	0.260888
1.830000	0.137261
1.832000	0.015223
1.834000	-0.093431
1.836000	-0.184353
1.838000	-0.251770
1.840000	-0.292087
1.842000	-0.303965
1.844000	-0.289661
1.846000	-0.254280
1.848000	-0.205682
1.850000	-0.149557
1.852000	-0.094017
1.854000	-0.045168
1.856000	-0.005521
1.858000	0.023504
1.860000	0.042993
1.862000	0.054285
1.864000	0.057631
1.866000	0.056460
1.868000	0.052445
1.870000	0.048179
1.872000	0.044834
1.874000	0.042993
1.876000	0.041739
1.878000	0.041739
1.880000	0.042993
1.882000	0.046339
1.884000	0.050940
1.886000	0.056460
1.888000	0.061646
1.890000	0.066832
1.892000	0.072018
1.894000	0.075364
1.896000	0.077790
1.898000	0.078375
1.900000	0.077204
1.902000	0.074109
1.904000	0.070763
1.906000	0.066832
1.908000	0.062817
1.910000	0.059806
1.912000	0.058551
1.914000	0.059137
1.916000	0.062232
1.918000	0.065912
1.920000	0.070763
1.922000	0.075364
1.924000	0.079630
1.926000	0.083896
1.928000	0.088747
1.930000	0.093013
1.932000	0.095773
1.934000	0.097613
1.936000	0.098199
1.938000	0.098533
1.940000	0.098199
1.942000	0.098533
1.944000	0.100374
1.946000	0.101879
1.948000	0.104639
1.950000	0.108571
1.952000	0.114091
1.954000	0.120197
1.956000	0.126638
1.958000	0.133330
1.960000	0.139436
1.962000	0.144622
1.964000	0.149222
1.966000	0.153739
1.968000	0.159259
1.970000	0.165031
1.972000	0.172057
1.974000	0.179418
1.976000	0.187615
1.978000	0.194976
1.980000	0.201416
1.982000	0.204762
1.984000	0.204762
1.986000	0.200747
1.988000	0.192801
1.990000	0.179752
1.992000	0.161685
1.994000	0.140021
1.996000	0.115011
1.998000	0.090922
2.000000	0.067752
2.002000	0.046925
2.004000	0.029276
2.006000	0.014889
2.008000	0.004517
2.010000	-0.000920
2.012000	-0.003429
2.014000	-0.004935
2.016000	-0.004266
2.018000	-0.003095
2.020000	-0.001589
2.022000	0.000000
2.024000	0.001171
2.026000	0.001171
2.028000	0.000251
2.030000	-0.001589
2.032000	-0.003095
2.034000	-0.004600
2.036000	-0.004600
2.038000	-0.005521
2.040000	-0.005521
2.042000	-0.004935
2.044000	-0.002175
2.046000	0.000251
2.048000	0.003346
2.050000	0.006106
2.052000	0.008532
2.054000	0.010037
2.056000	0.011292
2.058000	0.012798
2.060000	0.013969
2.062000	0.015558
2.064000	0.017984
2.066000	0.020409
2.068000	0.023755
2.070000	0.026515
2.072000	0.029861
2.074000	0.032621
2.076000	0.034462
2.078000	0.035633
2.080000	0.036887
2.082000	0.038142
2.084000	0.039648
2.086000	0.039982
2.088000	0.040568
2.090000	0.041488
2.092000	0.043579
2.094000	0.046674
2.096000	0.049099
2.098000	0.050354
2.100000	0.051525
2.102000	0.050940
2.104000	0.050605
2.106000	0.049099
2.108000	0.046674
2.110000	0.043579
2.112000	0.039982
2.114000	0.036302
2.116000	0.034127
2.118000	0.032956
2.120000	0.032036
2.122000	0.031701
2.124000	0.032621
2.126000	0.033207
2.128000	0.033542
2.130000	0.033876
2.132000	0.034796
2.134000	0.035633
2.136000	0.035633
2.138000	0.035047
2.140000	0.034127
2.142000	0.033876
2.144000	0.032287
2.146000	0.030447
2.148000	0.028356
2.150000	0.026515
2.152000	0.025595
2.154000	0.025010
2.156000	0.026515
2.158000	0.029276
2.160000	0.033207
2.162000	0.036887
2.164000	0.039648
2.166000	0.042659
2.168000	0.044499
2.170000	0.045419
2.172000	0.045168
2.174000	0.044834
2.176000	0.045168
2.178000	0.045754
2.180000	0.048179
2.182000	0.050605
2.184000	0.052780
2.186000	0.055791
2.188000	0.057966
2.190000	0.058886
2.192000	0.057966
2.194000	0.055540
2.196000	0.052780
2.198000	0.049434
2.200000	0.046339
2.202000	0.044248
2.204000	0.042993
2.206000	0.043328
2.208000	0.044834
2.210000	0.047845
2.212000	0.051860
2.214000	0.056460
2.216000	0.060726
2.218000	0.064657
2.220000	0.068003
2.222000	0.069509
2.224000	0.069509
2.226000	0.068003
2.228000	0.064992
2.230000	0.061897
2.232000	0.059137
2.234000	0.056460
2.236000	0.054871
2.238000	0.055205
2.240000	0.056711
2.242000	0.059471
2.244000	0.063403
2.246000	0.069843
2.248000	0.075364
2.250000	0.079881
2.252000	0.082975
2.254000	0.084230
2.256000	0.084481
2.258000	0.083561
2.260000	0.081470
2.262000	0.077790
2.264000	0.073858
2.266000	0.070429
2.268000	0.068338
2.270000	0.067752
2.272000	0.068589
2.274000	0.070763
2.276000	0.073524
2.278000	0.076869
2.280000	0.080801
2.282000	0.085150
2.284000	0.088747
2.286000	0.092093
2.288000	0.095773
2.290000	0.098868
2.292000	0.101294
2.294000	0.102214
2.296000	0.101628
2.298000	0.099453
2.300000	0.095188
2.302000	0.089416
2.304000	0.082055
2.306000	0.074695
2.308000	0.066497
2.310000	0.057631
2.312000	0.049685
2.314000	0.042408
2.316000	0.036302
2.318000	0.031701
2.320000	0.028356
2.322000	0.025010
2.324000	0.023504
2.326000	0.023755
2.328000	0.025261
2.330000	0.027435
2.332000	0.029276
2.334000	0.032036
2.336000	0.035047
2.338000	0.037222
2.340000	0.037473
2.342000	0.036887
2.344000	0.035047
2.346000	0.031701
2.348000	0.027770
2.350000	0.024090
2.352000	0.021329
2.354000	0.019155
2.356000	0.017984
2.358000	0.017398
2.360000	0.017649
2.362000	0.019155
2.364000	0.020409
2.366000	0.022249
2.368000	0.024675
2.370000	0.030196
2.372000	0.043579
2.374000	0.069258
2.376000	0.111080
2.378000	0.169046
2.380000	0.238304
2.382000	0.313082
2.384000	0.388446
2.386000	0.457452
2.388000	0.510483
2.390000	0.538588
2.392000	0.533987
2.394000	0.494340
2.396000	0.422322
2.398000	0.322534
2.400000	0.203173
2.402000	0.074109
2.404000	-0.053114
2.406000	-0.165784
2.408000	-0.255451
2.410000	-0.318017
2.412000	-0.349133
2.414000	-0.350387
2.416000	-0.323788
2.418000	-0.276864
2.420000	-0.218229
2.422000	-0.155328
2.424000	-0.095857
2.426000	-0.043997
2.428000	-0.004600
2.430000	0.023504
2.432000	0.040819
2.434000	0.047845
2.436000	0.048765
2.438000	0.046674
2.440000	0.042659
2.442000	0.037473
2.444000	0.034462
2.446000	0.033207
2.448000	0.034127
2.450000	0.036887
2.452000	0.041739
2.454000	0.045419
2.456000	0.050940
2.458000	0.055791
2.460000	0.060726
2.462000	0.064657
2.464000	0.066497
2.466000	0.068338
2.468000	0.067752
2.470000	0.066832
2.472000	0.065243
2.474000	0.064072
2.476000	0.062566
2.478000	0.062232
2.480000	0.062566
2.482000	0.063152
2.484000	0.065577
2.486000	0.070178
2.488000	0.075615
2.490000	0.081470
2.492000	0.086321
2.494000	0.090002
2.496000	0.092762
2.498000	0.094853
2.500000	0.095773
2.502000	0.095522
2.504000	0.093682
2.506000	0.092093
2.508000	0.090922
2.510000	0.090922
2.512000	0.091842
2.514000	0.093347
2.516000	0.095773
2.518000	0.099453
2.520000	0.104054
2.522000	0.109825
2.524000	0.115346
2.526000	0.121703
2.528000	0.127223
2.530000	0.133664
2.532000	0.140356
2.534000	0.146462
2.536000	0.152233
2.538000	0.159259
2.540000	0.167540
2.542000	0.176323
2.544000	0.185858
2.546000	0.195310
2.548000	0.203842
2.550000	0.210868
2.552000	0.216054
2.554000	0.217225
2.556000	0.214465
2.558000	0.206853
2.560000	0.195896
2.562000	0.180003
2.564000	0.161434
2.566000	0.140021
2.568000	0.117186
2.570000	0.093933
2.572000	0.071349
2.574000	0.050354
2.576000	0.031367
2.578000	0.015558
2.580000	0.004266
2.582000	-0.003429
2.584000	-0.007946
2.586000	-0.009535
2.588000	-0.009535
2.590000	-0.007695
2.592000	-0.005186
2.594000	-0.003429
2.596000	-0.001840
2.598000	-0.001589
2.600000	-0.000669
2.602000	0.000586
2.604000	0.001757
2.606000	0.003931
2.608000	0.005437
2.610000	0.007277
2.612000	0.009452
2.614000	0.011543
2.616000	0.013383
2.618000	0.013969
2.620000	0.015223
2.622000	0.014889
2.624000	0.013969
2.626000	0.014303
2.628000	0.015558
2.630000	0.015558
2.632000	0.015809
2.634000	0.014889
2.636000	0.012798
2.638000	0.009452
2.640000	0.005437
2.642000	0.001757
2.644000	-0.002509
2.646000	-0.006441
2.648000	-0.009201
2.650000	-0.010707
2.652000	-0.011041
2.654000	-0.009201
2.656000	-0.005521
2.658000	-0.000920
2.660000	0.003011
2.662000	0.007277
2.664000	0.012463
2.666000	0.016729
2.668000	0.020995
2.670000	0.024341
2.672000	0.027101
2.674000	0.027770
2.676000	0.027101
2.678000	0.025595
2.680000	0.022835
2.682000	0.018569
2.684000	0.014303
2.686000	0.010957
2.688000	0.008783
2.690000	0.008532
2.692000	0.009452
2.694000	0.011543
2.696000	0.014638
2.698000	0.018904
2.700000	0.022584
2.702000	0.025595
2.704000	0.026850
2.706000	0.027101
2.708000	0.026850
2.710000	0.024341
2.712000	0.021664
2.714000	0.017984
2.716000	0.015558
2.718000	0.013383
2.720000	0.011543
2.722000	0.010623
2.724000	0.010957
2.726000	0.012212
2.728000	0.014303
2.730000	0.017064
2.732000	0.020409
2.734000	0.022835
2.736000	0.026181
2.738000	0.028690
2.740000	0.030196
2.742000	0.031701
2.744000	0.032621
2.746000	0.033207
2.748000	0.032956
2.750000	0.031116
2.752000	0.028941
2.754000	0.025930
2.756000	0.022835
2.758000	0.020075
2.760000	0.017064
2.762000	0.014889
2.764000	0.013718
2.766000	0.014638
2.768000	0.016729
2.770000	0.020075
2.772000	0.024090
2.774000	0.027435
2.776000	0.031116
2.778000	0.033207
2.780000	0.034127
2.782000	0.033542
2.784000	0.032621
2.786000	0.030196
2.788000	0.028021
2.790000	0.024090
2.792000	0.021329
2.794000	0.019489
2.796000	0.017398
2.798000	0.016143
2.800000	0.015809
2.802000	0.015809
2.804000	0.016729
2.806000	0.018904
2.808000	0.020995
2.810000	0.023170
2.812000	0.024675
2.814000	0.025930
2.816000	0.027435
2.818000	0.029527
2.820000	0.030781
2.822000	0.031116
2.824000	0.031116
2.826000	0.030196
2.828000	0.029276
2.830000	0.029276
2.832000	0.028690
2.834000	0.029276
2.836000	0.030447
2.838000	0.032621
2.840000	0.035382
2.842000	0.037807
2.844000	0.041488
2.846000	0.044834
2.848000	0.048514
2.850000	0.052111
2.852000	0.054871
2.854000	0.058886
2.856000	0.064323
2.858000	0.070429
2.860000	0.075949
2.862000	0.078710
2.864000	0.079295
2.866000	0.076869
2.868000	0.072604
2.870000	0.063737
2.872000	0.053031
2.874000	0.040568
2.876000	0.028690
2.878000	0.018569
2.880000	0.011543
2.882000	0.005771
2.884000	0.003011
2.886000	0.003597
2.888000	0.006106
2.890000	0.009703
2.892000	0.013383
2.894000	0.017984
2.896000	0.020744
2.898000	0.022835
2.900000	0.024090
2.902000	0.025010
2.904000	0.025010
2.906000	0.024090
2.908000	0.023170
2.910000	0.021664
2.912000	0.021329
2.914000	0.020995
2.916000	0.019489
2.918000	0.018235
2.920000	0.016729
2.922000	0.015809
2.924000	0.013718
2.926000	0.011543
2.928000	0.008783
2.930000	0.006692
2.932000	0.007277
2.934000	0.014889
2.936000	0.034796
2.938000	0.070429
2.940000	0.122372
2.942000	0.186695
2.944000	0.258713
2.946000	0.333826
2.948000	0.405509
2.950000	0.464730
2.952000	0.503541
2.954000	0.512323
2.956000	0.486394
2.958000	0.427173
2.960000	0.340266
2.962000	0.231612
2.964000	0.109240
2.966000	-0.014052
2.968000	-0.127558
2.970000	-0.222829
2.972000	-0.293007
2.974000	-0.333575
2.976000	-0.343947
2.978000	-0.326883
2.980000	-0.286901
2.982000	-0.232616
2.984000	-0.173061
2.986000	-0.115095
2.988000	-0.063821
2.990000	-0.023504
2.992000	0.004266
2.994000	0.020409
2.996000	0.026850
2.998000	0.026181
3.000000	0.022584
3.002000	0.017398
3.004000	0.012463
3.006000	0.010037
3.008000	0.009703
3.010000	0.011878
3.012000	0.017649
3.014000	0.025595
3.016000	0.034127
3.018000	0.040819
3.020000	0.046674
3.022000	0.051274
3.024000	0.053365
3.026000	0.054285
3.028000	0.053365
3.030000	0.051274
3.032000	0.048514
3.034000	0.045754
3.036000	0.045168
3.038000	0.045754
3.040000	0.047259
3.042000	0.049434
3.044000	0.052780
3.046000	0.056711
3.048000	0.061312
3.050000	0.064323
3.052000	0.067083
3.054000	0.069509
3.056000	0.071683
3.058000	0.073858
3.060000	0.075364
3.062000	0.076284
3.064000	0.076535
3.066000	0.077790
3.068000	0.079044
3.070000	0.081135
3.072000	0.083561
3.074000	0.085987
3.076000	0.089416
3.078000	0.094268
3.080000	0.099788
3.082000	0.105560
3.084000	0.111666
3.086000	0.118943
3.088000	0.125969
3.090000	0.132995
3.092000	0.139770
3.094000	0.146713
3.096000	0.153488
3.098000	0.160179
3.100000	0.166871
3.102000	0.173312
3.104000	0.180589
3.106000	0.187949
3.108000	0.196230
3.110000	0.204762
3.112000	0.212039
3.114000	0.217560
3.116000	0.220320
3.118000	0.218480
3.120000	0.212374
3.122000	0.201416
3.124000	0.184938
3.126000	0.164780
3.128000	0.141527
3.130000	0.115597
3.132000	0.090336
3.134000	0.066832
3.136000	0.046674
3.138000	0.029276
3.140000	0.014303
3.142000	0.002677
3.144000	-0.004600
3.146000	-0.009201
3.148000	-0.011961
3.150000	-0.013467
3.152000	-0.014721
3.154000	-0.015307
3.156000	-0.014972
3.158000	-0.013801
3.160000	-0.012881
3.162000	-0.012212
3.164000	-0.011961
3.166000	-0.012212
3.168000	-0.011961
3.170000	-0.012212
3.172000	-0.012881
3.174000	-0.013467
3.176000	-0.014052
3.178000	-0.014387
3.180000	-0.014972
3.182000	-0.014721
3.184000	-0.014052
3.186000	-0.013132
3.188000	-0.012212
3.190000	-0.010707
3.192000	-0.009201
3.194000	-0.007361
3.196000	-0.005855
3.198000	-0.004935
3.200000	-0.004266
3.202000	-0.003680
3.204000	-0.004015
3.206000	-0.005186
3.208000	-0.005855
3.210000	-0.006441
3.212000	-0.007695
3.214000	-0.009535
3.216000	-0.010707
3.218000	-0.010707
3.220000	-0.009201
3.222000	-0.006441
3.224000	-0.002175
3.226000	0.001757
3.228000	0.004851
3.230000	0.007612
3.232000	0.009703
3.234000	0.010372
3.236000	0.009703
3.238000	0.008532
3.240000	0.006692
3.242000	0.004517
3.244000	0.003346
3.246000	0.002677
3.248000	0.003346
3.250000	0.004851
3.252000	0.007863
3.254000	0.010957
3.256000	0.013383
3.258000	0.016729
3.260000	0.020075
3.262000	0.021915
3.264000	0.023170
3.266000	0.024090
3.268000	0.023755
3.270000	0.023170
3.272000	0.022835
3.274000	0.022584
3.276000	0.021915
3.278000	0.022584
3.280000	0.023504
3.282000	0.024675
3.284000	0.026181
3.286000	0.026850
3.288000	0.027101
3.290000	0.026850
3.292000	0.026515
3.294000	0.026515
3.296000	0.026515
3.298000	0.026850
3.300000	0.026850
3.302000	0.028021
3.304000	0.028690
3.306000	0.028690
3.308000	0.028941
3.310000	0.028690
3.312000	0.027770
3.314000	0.026850
3.316000	0.025930
3.318000	0.025261
3.320000	0.025595
3.322000	0.025930
3.324000	0.025930
3.326000	0.026515
3.328000	0.025930
3.330000	0.024675
3.332000	0.022249
3.334000	0.020075
3.336000	0.017984
3.338000	0.016478
3.340000	0.015223
3.342000	0.014303
3.344000	0.015223
3.346000	0.016729
3.348000	0.019155
3.350000	0.021915
3.352000	0.024675
3.354000	0.026515
3.356000	0.028356
3.358000	0.029527
3.360000	0.030196
3.362000	0.031116
3.364000	0.030781
3.366000	0.031701
3.368000	0.032621
3.370000	0.033542
3.372000	0.035047
3.374000	0.037222
3.376000	0.040819
3.378000	0.041739
3.380000	0.042993
3.382000	0.042659
3.384000	0.041739
3.386000	0.041153
3.388000	0.040819
3.390000	0.039062
3.392000	0.036553
3.394000	0.034462
3.396000	0.032956
3.398000	0.031701
3.400000	0.031367
3.402000	0.031116
3.404000	0.030447
3.406000	0.030196
3.408000	0.029527
3.410000	0.029527
3.412000	0.030447
3.414000	0.031701
3.416000	0.032621
3.418000	0.034796
3.420000	0.035633
3.422000	0.036553
3.424000	0.037222
3.426000	0.038142
3.428000	0.040568
3.430000	0.043579
3.432000	0.046674
3.434000	0.049099
3.436000	0.050940
3.438000	0.053365
3.440000	0.054871
3.442000	0.056460
3.444000	0.057046
3.446000	0.057046
3.448000	0.057297
3.450000	0.059471
3.452000	0.063152
3.454000	0.068003
3.456000	0.072938
3.458000	0.078124
3.460000	0.080550
3.462000	0.080801
3.464000	0.078710
3.466000	0.074109
3.468000	0.067083
3.470000	0.058551
3.472000	0.048765
3.474000	0.038727
3.476000	0.029861
3.478000	0.022584
3.480000	0.017984
3.482000	0.015558
3.484000	0.015223
3.486000	0.016143
3.488000	0.017649
3.490000	0.020995
3.492000	0.023504
3.494000	0.024341
3.496000	0.024090
3.498000	0.022584
3.500000	0.021329
3.502000	0.018904
3.504000	0.016143
3.506000	0.014303
3.508000	0.013383
3.510000	0.014638
3.512000	0.017984
3.514000	0.020995
3.516000	0.024090
3.518000	0.026850
3.520000	0.029527
3.522000	0.032036
3.524000	0.033542
3.526000	0.032956
3.528000	0.031116
3.530000	0.029861
3.532000	0.034796
3.534000	0.051525
3.536000	0.082641
3.538000	0.130235
3.540000	0.191044
3.542000	0.259968
3.544000	0.332320
3.546000	0.402498
3.548000	0.461049
3.550000	0.498940
3.552000	0.508058
3.554000	0.484302
3.556000	0.429682
3.558000	0.346958
3.560000	0.241398
3.562000	0.122038
3.564000	0.000920
3.566000	-0.111749
3.568000	-0.206937
3.570000	-0.278620
3.572000	-0.322283
3.574000	-0.336000
3.576000	-0.321697
3.578000	-0.283890
3.580000	-0.231026
3.582000	-0.170300
3.584000	-0.110829
3.586000	-0.057715
3.588000	-0.015892
3.590000	0.013383
3.592000	0.031116
3.594000	0.039648
3.596000	0.040819
3.598000	0.037807
3.600000	0.032956
3.602000	0.026850
3.604000	0.022835
3.606000	0.019489
3.608000	0.018569
3.610000	0.018904
3.612000	0.020744
3.614000	0.023755
3.616000	0.027435
3.618000	0.032621
3.620000	0.038142
3.622000	0.043579
3.624000	0.048179
3.626000	0.051860
3.628000	0.055791
3.630000	0.059806
3.632000	0.062232
3.634000	0.063737
3.636000	0.064992
3.638000	0.065577
3.640000	0.065243
3.642000	0.064992
3.644000	0.065912
3.646000	0.067083
3.648000	0.067418
3.650000	0.067418
3.652000	0.067752
3.654000	0.067083
3.656000	0.067752
3.658000	0.067752
3.660000	0.067083
3.662000	0.067418
3.664000	0.067418
3.666000	0.068338
3.668000	0.069258
3.670000	0.071349
3.672000	0.074444
3.674000	0.077204
3.676000	0.080215
3.678000	0.084481
3.680000	0.088747
3.682000	0.093682
3.684000	0.099788
3.686000	0.106480
3.688000	0.113171
3.690000	0.120783
3.692000	0.128729
3.694000	0.136090
3.696000	0.143116
3.698000	0.151313
3.700000	0.159845
3.702000	0.167791
3.704000	0.174566
3.706000	0.181843
3.708000	0.188870
3.710000	0.195310
3.712000	0.200162
3.714000	0.202587
3.716000	0.202587
3.718000	0.199242
3.720000	0.192550
3.722000	0.180338
3.724000	0.163274
3.726000	0.141861
3.728000	0.117437
3.730000	0.091507
3.732000	0.065912
3.734000	0.042408
3.736000	0.021915
3.738000	0.006106
3.740000	-0.004600
3.742000	-0.011041
3.744000	-0.013801
3.746000	-0.013132
3.748000	-0.012547
3.750000	-0.011961
3.752000	-0.011961
3.754000	-0.012547
3.756000	-0.012881
3.758000	-0.014721
3.760000	-0.015892
3.762000	-0.017733
3.764000	-0.019238
3.766000	-0.020158
3.768000	-0.020493
3.770000	-0.020828
3.772000	-0.020828
3.774000	-0.019573
3.776000	-0.017733
3.778000	-0.014972
3.780000	-0.011292
3.782000	-0.007361
3.784000	-0.003429
3.786000	0.000000
3.788000	0.001506
3.790000	0.002091
3.792000	0.001757
3.794000	0.000920
3.796000	-0.000669
3.798000	-0.000920
3.800000	-0.001255
3.802000	-0.000920
3.804000	0.000920
3.806000	0.003597
3.808000	0.006106
3.810000	0.007277
3.812000	0.006692
3.814000	0.003346
3.816000	-0.000920
3.818000	-0.005855
3.820000	-0.010121
3.822000	-0.013801
3.824000	-0.017147
3.826000	-0.018653
3.828000	-0.016478
3.830000	-0.013132
3.832000	-0.008281
3.834000	-0.002760
3.836000	0.004266
3.838000	0.010957
3.840000	0.015558
3.842000	0.019155
3.844000	0.020075
3.846000	0.019489
3.848000	0.017984
3.850000	0.015809
3.852000	0.013969
3.854000	0.011878
3.856000	0.011292
3.858000	0.011292
3.860000	0.012212
3.862000	0.013718
3.864000	0.014638
3.866000	0.015558
3.868000	0.016478
3.870000	0.015809
3.872000	0.015558
3.874000	0.015558
3.876000	0.017064
3.878000	0.019824
3.880000	0.021664
3.882000	0.023170
3.884000	0.024090
3.886000	0.024090
3.888000	0.022835
3.890000	0.020744
3.892000	0.018235
3.894000	0.015558
3.896000	0.013383
3.898000	0.011878
3.900000	0.011878
3.902000	0.011878
3.904000	0.011292
3.906000	0.010623
3.908000	0.008783
3.910000	0.006692
3.912000	0.004266
3.914000	0.002426
3.916000	0.001757
3.918000	0.004851
3.920000	0.008783
3.922000	0.013383
3.924000	0.017984
3.926000	0.023170
3.928000	0.027101
3.930000	0.029861
3.932000	0.029861
3.934000	0.027101
3.936000	0.022584
3.938000	0.017984
3.940000	0.012798
3.942000	0.008783
3.944000	0.006106
3.946000	0.004851
3.948000	0.005186
3.950000	0.007277
3.952000	0.011292
3.954000	0.013718
3.956000	0.016729
3.958000	0.019824
3.960000	0.021664
3.962000	0.022584
3.964000	0.023170
3.966000	0.022584
3.968000	0.020995
3.970000	0.019824
3.972000	0.017984
3.974000	0.014889
3.976000	0.011878
3.978000	0.009117
3.980000	0.005771
3.982000	0.003931
3.984000	0.003346
3.986000	0.004851
3.988000	0.006942
3.990000	0.010957
3.992000	0.016478
3.994000	0.022835
3.996000	0.028690
3.998000	0.033207
4.000000	0.035967
4.002000	0.035967
4.004000	0.034796
4.006000	0.032036
4.008000	0.027770
4.010000	0.023504
4.012000	0.020075
4.014000	0.017398
4.016000	0.017649
4.018000	0.018569
4.020000	0.020409
4.022000	0.022835
4.024000	0.025261
4.026000	0.027770
4.028000	0.031367
4.030000	0.033876
4.032000	0.035967
4.034000	0.037473
4.036000	0.037473
4.038000	0.037222
4.040000	0.037807
4.042000	0.038727
4.044000	0.039062
4.046000	0.041739
4.048000	0.045168
4.050000	0.050019
4.052000	0.056126
4.054000	0.061646
4.056000	0.065577
4.058000	0.068338
4.060000	0.068003
4.062000	0.065577
4.064000	0.059806
4.066000	0.050940
4.068000	0.040233
4.070000	0.028941
4.072000	0.017649
4.074000	0.007863
4.076000	-0.000335
4.078000	-0.004600
4.080000	-0.005186
4.082000	-0.002509
4.084000	0.001506
4.086000	0.006357
4.088000	0.011878
4.090000	0.017064
4.092000	0.020409
4.094000	0.021329
4.096000	0.019155
4.098000	0.014638
4.100000	0.010037
4.102000	0.006942
4.104000	0.004517
4.106000	0.003597
4.108000	0.003346
4.110000	0.003597
4.112000	0.004851
4.114000	0.005771
4.116000	0.005186
4.118000	0.003011
4.120000	-0.000669
4.122000	-0.005186
4.124000	-0.008281
4.126000	-0.006441
4.128000	0.006357
4.130000	0.034462
4.132000	0.079630
4.134000	0.138850
4.136000	0.208108
4.138000	0.281631
4.140000	0.355155
4.142000	0.420231
4.144000	0.468075
4.146000	0.490074
4.148000	0.480037
4.150000	0.436709
4.152000	0.363436
4.154000	0.264819
4.156000	0.148887
4.158000	0.026515
4.160000	-0.092176
4.162000	-0.197150
4.164000	-0.279875
4.166000	-0.334495
4.168000	-0.357999
4.170000	-0.351558
4.172000	-0.319272
4.174000	-0.268248
4.176000	-0.206351
4.178000	-0.144120
4.180000	-0.086739
4.182000	-0.039397
4.184000	-0.003680
4.186000	0.018569
4.188000	0.030781
4.190000	0.033876
4.192000	0.033207
4.194000	0.029861
4.196000	0.026515
4.198000	0.024675
4.200000	0.022584
4.202000	0.020744
4.204000	0.019824
4.206000	0.019155
4.208000	0.018235
4.210000	0.017649
4.212000	0.017649
4.214000	0.017064
4.216000	0.018569
4.218000	0.022584
4.220000	0.028941
4.222000	0.035633
4.224000	0.041153
4.226000	0.044834
4.228000	0.046339
4.230000	0.046674
4.232000	0.044248
4.234000	0.039648
4.236000	0.034462
4.238000	0.028690
4.240000	0.025261
4.242000	0.022249
4.244000	0.022249
4.246000	0.025261
4.248000	0.029527
4.250000	0.033876
4.252000	0.037807
4.254000	0.041739
4.256000	0.045168
4.258000	0.048514
4.260000	0.052445
4.262000	0.055791
4.264000	0.058886
4.266000	0.062566
4.268000	0.066832
4.270000	0.071098
4.272000	0.075615
4.274000	0.080215
4.276000	0.083896
4.278000	0.086321
4.280000	0.088496
4.282000	0.090587
4.284000	0.093933
4.286000	0.096693
4.288000	0.099453
4.290000	0.102465
4.292000	0.105894
4.294000	0.111080
4.296000	0.117186
4.298000	0.123543
4.300000	0.132744
4.302000	0.142781
4.304000	0.153153
4.306000	0.163525
4.308000	0.171806
4.310000	0.176992
4.312000	0.178163
4.314000	0.173897
4.316000	0.163860
4.318000	0.147633
4.320000	0.127558
4.322000	0.104639
4.324000	0.081135
4.326000	0.058217
4.328000	0.037222
4.330000	0.020409
4.332000	0.007612
4.334000	-0.002760
4.336000	-0.009201
4.338000	-0.013132
4.340000	-0.015558
4.342000	-0.017398
4.344000	-0.019238
4.346000	-0.020828
4.348000	-0.022333
4.350000	-0.023839
4.352000	-0.024173
4.354000	-0.025344
4.356000	-0.025679
4.358000	-0.025093
4.360000	-0.024759
4.362000	-0.024173
4.364000	-0.022584
4.366000	-0.020828
4.368000	-0.019238
4.370000	-0.018318
4.372000	-0.016813
4.374000	-0.014721
4.376000	-0.011627
4.378000	-0.008866
4.380000	-0.006775
4.382000	-0.005855
4.384000	-0.004935
4.386000	-0.005521
4.388000	-0.006441
4.390000	-0.009201
4.392000	-0.012547
4.394000	-0.015558
4.396000	-0.017733
4.398000	-0.020158
4.400000	-0.021413
4.402000	-0.022919
4.404000	-0.023253
4.406000	-0.022919
4.408000	-0.021999
4.410000	-0.020828
4.412000	-0.019573
4.414000	-0.017398
4.416000	-0.015307
4.418000	-0.011961
4.420000	-0.007695
4.422000	-0.003680
4.424000	-0.000335
4.426000	0.003346
4.428000	0.005771
4.430000	0.007863
4.432000	0.009452
4.434000	0.011543
4.436000	0.013718
4.438000	0.015223
4.440000	0.017064
4.442000	0.019489
4.444000	0.021915
4.446000	0.023170
4.448000	0.023170
4.450000	0.022249
4.452000	0.020075
4.454000	0.016478
4.456000	0.013383
4.458000	0.009703
4.460000	0.007277
4.462000	0.006106
4.464000	0.005771
4.466000	0.007277
4.468000	0.010372
4.470000	0.015223
4.472000	0.019824
4.474000	0.023755
4.476000	0.026181
4.478000	0.027770
4.480000	0.028356
4.482000	0.027770
4.484000	0.026515
4.486000	0.024090
4.488000	0.020744
4.490000	0.017649
4.492000	0.014889
4.494000	0.012212
4.496000	0.009703
4.498000	0.006692
4.500000	0.004851
4.502000	0.003011
4.504000	0.002091
4.506000	0.001506
4.508000	0.002677
4.510000	0.004851
4.512000	0.007277
4.514000	0.010037
4.516000	0.012798
4.518000	0.016143
4.520000	0.017984
4.522000	0.018904
4.524000	0.019155
4.526000	0.018904
4.528000	0.017649
4.530000	0.016478
4.532000	0.017398
4.534000	0.019489
4.536000	0.021664
4.538000	0.023755
4.540000	0.027101
4.542000	0.031701
4.544000	0.036302
4.546000	0.039648
4.548000	0.040819
4.550000	0.040233
4.552000	0.038393
4.554000	0.035047
4.556000	0.031116
4.558000	0.026515
4.560000	0.022249
4.562000	0.017984
4.564000	0.014638
4.566000	0.012463
4.568000	0.011878
4.570000	0.013049
4.572000	0.016143
4.574000	0.019489
4.576000	0.023170
4.578000	0.026515
4.580000	0.030196
4.582000	0.035047
4.584000	0.039648
4.586000	0.043328
4.588000	0.047594
4.590000	0.052780
4.592000	0.058217
4.594000	0.063152
4.596000	0.066832
4.598000	0.069258
4.600000	0.067418
4.602000	0.062817
4.604000	0.055540
4.606000	0.045419
4.608000	0.032956
4.610000	0.020744
4.612000	0.009703
4.614000	0.001171
4.616000	-0.004266
4.618000	-0.006106
4.620000	-0.006441
4.622000	-0.005186
4.624000	-0.003680
4.626000	-0.000920
4.628000	0.000586
4.630000	0.000586
4.632000	-0.000669
4.634000	-0.002760
4.636000	-0.004600
4.638000	-0.006441
4.640000	-0.007695
4.642000	-0.007946
4.644000	-0.007361
4.646000	-0.006775
4.648000	-0.005521
4.650000	-0.004935
4.652000	-0.003680
4.654000	-0.002760
4.656000	-0.001840
4.658000	-0.000335
4.660000	0.001506
4.662000	0.001757
4.664000	0.003931
4.666000	0.009452
4.668000	0.024675
4.670000	0.051860
4.672000	0.093347
4.674000	0.146713
4.676000	0.209028
4.678000	0.275860
4.680000	0.342357
4.682000	0.403418
4.684000	0.448586
4.686000	0.469330
4.688000	0.459878
4.690000	0.416801
4.692000	0.342943
4.694000	0.244410
4.696000	0.126889
4.698000	0.002091
4.700000	-0.118441
4.702000	-0.223415
4.704000	-0.304885
4.706000	-0.357079
4.708000	-0.378157
4.710000	-0.368706
4.712000	-0.332069
4.714000	-0.277784
4.716000	-0.213377
4.718000	-0.149891
4.720000	-0.093096
4.722000	-0.047677
4.724000	-0.014972
4.726000	0.004517
4.728000	0.013383
4.730000	0.013718
4.732000	0.008783
4.734000	0.001506
4.736000	-0.004935
4.738000	-0.009786
4.740000	-0.011292
4.742000	-0.009786
4.744000	-0.005186
4.746000	0.002677
4.748000	0.010372
4.750000	0.017064
4.752000	0.022584
4.754000	0.027101
4.756000	0.029861
4.758000	0.030781
4.760000	0.029527
4.762000	0.027101
4.764000	0.024090
4.766000	0.021329
4.768000	0.019155
4.770000	0.018904
4.772000	0.021915
4.774000	0.026850
4.776000	0.032287
4.778000	0.037473
4.780000	0.042408
4.782000	0.046339
4.784000	0.050019
4.786000	0.050354
4.788000	0.049099
4.790000	0.047259
4.792000	0.044499
4.794000	0.041488
4.796000	0.039982
4.798000	0.039062
4.800000	0.038727
4.802000	0.039313
4.804000	0.040233
4.806000	0.039982
4.808000	0.041153
4.810000	0.044499
4.812000	0.049434
4.814000	0.055540
4.816000	0.062566
4.818000	0.071349
4.820000	0.081470
4.822000	0.091507
4.824000	0.100708
4.826000	0.107651
4.828000	0.112920
4.830000	0.116852
4.832000	0.118692
4.834000	0.119863
4.836000	0.121117
4.838000	0.123543
4.840000	0.127558
4.842000	0.132075
4.844000	0.138516
4.846000	0.145207
4.848000	0.151062
4.850000	0.154073
4.852000	0.154408
4.854000	0.149808
4.856000	0.140690
4.858000	0.125718
4.860000	0.106814
4.862000	0.085401
4.864000	0.062566
4.866000	0.039648
4.868000	0.017649
4.870000	-0.000920
4.872000	-0.014972
4.874000	-0.023839
4.876000	-0.029025
4.878000	-0.031785
4.880000	-0.032120
4.882000	-0.032120
4.884000	-0.031199
4.886000	-0.031450
4.888000	-0.032956
4.890000	-0.035465
4.892000	-0.038142
4.894000	-0.042742
4.896000	-0.046423
4.898000	-0.049183
4.900000	-0.049434
4.902000	-0.047008
4.904000	-0.043077
4.906000	-0.038477
4.908000	-0.033625
4.910000	-0.029025
4.912000	-0.024173
4.914000	-0.018987
4.916000	-0.015307
4.918000	-0.014721
4.920000	-0.015558
4.922000	-0.018067
4.924000	-0.021413
4.926000	-0.025679
4.928000	-0.029025
4.930000	-0.032120
4.932000	-0.034545
4.934000	-0.036385
4.936000	-0.036051
4.938000	-0.034211
4.940000	-0.031199
4.942000	-0.027519
4.944000	-0.024759
4.946000	-0.022333
4.948000	-0.019573
4.950000	-0.016813
4.952000	-0.015558
4.954000	-0.014052
4.956000	-0.012881
4.958000	-0.009786
4.960000	-0.007946
4.962000	-0.006441
4.964000	-0.004935
4.966000	-0.003429
4.968000	-0.002509
4.970000	-0.002760
4.972000	-0.004015
4.974000	-0.006441
4.976000	-0.009201
4.978000	-0.012547
4.980000	-0.014972
4.982000	-0.017733
4.984000	-0.019238
4.986000	-0.020158
4.988000	-0.019238
4.990000	-0.017398
4.992000	-0.014721
4.994000	-0.012547
4.996000	-0.010121
4.998000	-0.007946
5.000000	-0.007026
5.002000	-0.007946
5.004000	-0.008866
5.006000	-0.008866
5.008000	-0.008866
5.010000	-0.007026
5.012000	-0.004266
5.014000	-0.000335
5.016000	0.003346
5.018000	0.006357
5.020000	0.008783
5.022000	0.010957
5.024000	0.010372
5.026000	0.006942
5.028000	0.002091
5.030000	-0.003680
5.032000	-0.009786
5.034000	-0.015307
5.036000	-0.019907
5.038000	-0.023253
5.040000	-0.023253
5.042000	-0.020493
5.044000	-0.016227
5.046000	-0.011041
5.048000	-0.007026
5.050000	-0.003429
5.052000	-0.000920
5.054000	0.000920
5.056000	0.001506
5.058000	0.000251
5.060000	-0.001255
5.062000	-0.002509
5.064000	-0.003429
5.066000	-0.003429
5.068000	-0.002760
5.070000	-0.001589
5.072000	0.000251
5.074000	0.002677
5.076000	0.006357
5.078000	0.010957
5.080000	0.015558
5.082000	0.020995
5.084000	0.025930
5.086000	0.030447
5.088000	0.033876
5.090000	0.036302
5.092000	0.037473
5.094000	0.038142
5.096000	0.038393
5.098000	0.038727
5.100000	0.039648
5.102000	0.040233
5.104000	0.040568
5.106000	0.039648
5.108000	0.035967
5.110000	0.030447
5.112000	0.022584
5.114000	0.013383
5.116000	0.004851
5.118000	-0.004266
5.120000	-0.011292
5.122000	-0.016813
5.124000	-0.021413
5.126000	-0.024173
5.128000	-0.026264
5.130000	-0.028105
5.132000	-0.028690
5.134000	-0.030530
5.136000	-0.033291
5.138000	-0.035716
5.140000	-0.037306
5.142000	-0.037556
5.144000	-0.036051
5.146000	-0.034545
5.148000	-0.031785
5.150000	-0.027185
5.152000	-0.022333
5.154000	-0.017733
5.156000	-0.014387
5.158000	-0.012881
5.160000	-0.011961
5.162000	-0.012547
5.164000	-0.014387
5.166000	-0.018318
5.168000	-0.022919
5.170000	-0.024424
5.172000	-0.015558
5.174000	0.006357
5.176000	0.046005
5.178000	0.101294
5.180000	0.167540
5.182000	0.240729
5.184000	0.313667
5.186000	0.380834
5.188000	0.431774
5.190000	0.456783
5.192000	0.448837
5.194000	0.407098
5.196000	0.333240
5.198000	0.232198
5.200000	0.112251
5.202000	-0.014972
5.204000	-0.137679
5.206000	-0.245664
5.208000	-0.330229
5.210000	-0.385769
5.212000	-0.410193
5.214000	-0.405342
5.216000	-0.373557
5.218000	-0.324123
5.220000	-0.263397
5.222000	-0.203006
5.224000	-0.147465
5.226000	-0.101963
5.228000	-0.068672
5.230000	-0.048598
5.232000	-0.037556
5.234000	-0.032956
5.236000	-0.033291
5.238000	-0.034211
5.240000	-0.035716
5.242000	-0.036971
5.244000	-0.037556
5.246000	-0.036971
5.248000	-0.036051
5.250000	-0.034545
5.252000	-0.034211
5.254000	-0.033625
5.256000	-0.033876
5.258000	-0.033876
5.260000	-0.032120
5.262000	-0.029025
5.264000	-0.024759
5.266000	-0.019573
5.268000	-0.014972
5.270000	-0.010707
5.272000	-0.006775
5.274000	-0.003429
5.276000	-0.001255
5.278000	-0.001255
5.280000	-0.002509
5.282000	-0.003095
5.284000	-0.004015
5.286000	-0.004935
5.288000	-0.005186
5.290000	-0.004015
5.292000	-0.002760
5.294000	-0.001589
5.296000	-0.001840
5.298000	-0.001840
5.300000	-0.000335
5.302000	0.000920
5.304000	0.001757
5.306000	0.002426
5.308000	0.003931
5.310000	0.006692
5.312000	0.010037
5.314000	0.013718
5.316000	0.017984
5.318000	0.022835
5.320000	0.028690
5.322000	0.034127
5.324000	0.040233
5.326000	0.046339
5.328000	0.052780
5.330000	0.058886
5.332000	0.064657
5.334000	0.071683
5.336000	0.078375
5.338000	0.086656
5.340000	0.096108
5.342000	0.106145
5.344000	0.116852
5.346000	0.127223
5.348000	0.135755
5.350000	0.140021
5.352000	0.139436
5.354000	0.133915
5.356000	0.124463
5.358000	0.109240
5.360000	0.090336
5.362000	0.069843
5.364000	0.048514
5.366000	0.027770
5.368000	0.006942
5.370000	-0.013467
5.372000	-0.032370
5.374000	-0.048848
5.376000	-0.062566
5.378000	-0.074527
5.380000	-0.083310
5.382000	-0.088496
5.384000	-0.090336
5.386000	-0.090336
5.388000	-0.087660
5.390000	-0.082725
5.392000	-0.077873
5.394000	-0.073273
5.396000	-0.069927
5.398000	-0.067752
5.400000	-0.067501
5.402000	-0.067501
5.404000	-0.068672
5.406000	-0.070261
5.408000	-0.072687
5.410000	-0.076618
5.412000	-0.080299
5.414000	-0.083645
5.416000	-0.086739
5.418000	-0.089416
5.420000	-0.090336
5.422000	-0.088245
5.424000	-0.083645
5.426000	-0.076618
5.428000	-0.069341
5.430000	-0.061646
5.432000	-0.053783
5.434000	-0.047008
5.436000	-0.042742
5.438000	-0.042157
5.440000	-0.044248
5.442000	-0.049769
5.444000	-0.057380
5.446000	-0.064741
5.448000	-0.072938
5.450000	-0.079964
5.452000	-0.085819
5.454000	-0.089751
5.456000	-0.091256
5.458000	-0.090671
5.460000	-0.087660
5.462000	-0.083645
5.464000	-0.077204
5.466000	-0.070261
5.468000	-0.062901
5.470000	-0.054955
5.472000	-0.047343
5.474000	-0.041822
5.476000	-0.037556
5.478000	-0.035465
5.480000	-0.034545
5.482000	-0.035465
5.484000	-0.037556
5.486000	-0.040317
5.488000	-0.042742
5.490000	-0.044583
5.492000	-0.045503
5.494000	-0.045837
5.496000	-0.045503
5.498000	-0.045503
5.500000	-0.046423
5.502000	-0.047343
5.504000	-0.049434
5.506000	-0.052529
5.508000	-0.054034
5.510000	-0.053783
5.512000	-0.053449
5.514000	-0.051943
5.516000	-0.049769
5.518000	-0.046757
5.520000	-0.043663
5.522000	-0.041237
5.524000	-0.038142
5.526000	-0.035131
5.528000	-0.032370
5.530000	-0.029025
5.532000	-0.026013
5.534000	-0.023504
5.536000	-0.021413
5.538000	-0.019573
5.540000	-0.018318
5.542000	-0.018653
5.544000	-0.021664
5.546000	-0.026850
5.548000	-0.033291
5.550000	-0.039062
5.552000	-0.043997
5.554000	-0.044248
5.556000	-0.040317
5.558000	-0.030530
5.560000	-0.018067
5.562000	-0.003680
5.564000	0.011878
5.566000	0.028356
5.568000	0.042659
5.570000	0.052111
5.572000	0.056460
5.574000	0.056711
5.576000	0.054620
5.578000	0.051274
5.580000	0.046674
5.582000	0.040233
5.584000	0.032956
5.586000	0.026850
5.588000	0.019824
5.590000	0.011878
5.592000	0.002426
5.594000	-0.007026
5.596000	-0.016227
5.598000	-0.022584
5.600000	-0.027519
5.602000	-0.031785
5.604000	-0.035131
5.606000	-0.036971
5.608000	-0.037556
5.610000	-0.037306
5.612000	-0.037306
5.614000	-0.036636
5.616000	-0.035465
5.618000	-0.033291
5.620000	-0.032120
5.622000	-0.030279
5.624000	-0.029945
5.626000	-0.030530
5.628000	-0.032370
5.630000	-0.034545
5.632000	-0.037891
5.634000	-0.041571
5.636000	-0.044248
5.638000	-0.045837
5.640000	-0.044583
5.642000	-0.041822
5.644000	-0.037556
5.646000	-0.033291
5.648000	-0.027185
5.650000	-0.017147
5.652000	0.000251
5.654000	0.027101
5.656000	0.068003
5.658000	0.121703
5.660000	0.184938
5.662000	0.252941
5.664000	0.320108
5.666000	0.379579
5.668000	0.423242
5.670000	0.443986
5.672000	0.435789
5.674000	0.396392
5.676000	0.329225
5.678000	0.238304
5.680000	0.129984
5.682000	0.013718
5.684000	-0.098282
5.686000	-0.197820
5.688000	-0.276864
5.690000	-0.332069
5.692000	-0.361679
5.694000	-0.366531
5.696000	-0.348213
5.698000	-0.311911
5.700000	-0.264903
5.702000	-0.213963
5.704000	-0.164529
5.706000	-0.122707
5.708000	-0.089165
5.710000	-0.064741
5.712000	-0.048263
5.714000	-0.037891
5.716000	-0.032370
5.718000	-0.029359
5.720000	-0.027519
5.722000	-0.026013
5.724000	-0.022919
5.726000	-0.018318
5.728000	-0.013132
5.730000	-0.007946
5.732000	-0.002175
5.734000	0.005437
5.736000	0.012798
5.738000	0.020075
5.740000	0.026181
5.742000	0.030447
5.744000	0.032621
5.746000	0.032956
5.748000	0.032036
5.750000	0.029276
5.752000	0.024090
5.754000	0.018235
5.756000	0.012463
5.758000	0.007612
5.760000	0.005437
5.762000	0.004517
5.764000	0.006106
5.766000	0.008783
5.768000	0.013049
5.770000	0.018569
5.772000	0.023504
5.774000	0.028690
5.776000	0.033542
5.778000	0.037473
5.780000	0.041153
5.782000	0.043913
5.784000	0.047259
5.786000	0.049685
5.788000	0.052111
5.790000	0.054285
5.792000	0.057046
5.794000	0.059137
5.796000	0.061897
5.798000	0.065577
5.800000	0.070429
5.802000	0.075949
5.804000	0.082055
5.806000	0.088747
5.808000	0.096108
5.810000	0.104305
5.812000	0.112920
5.814000	0.121452
5.816000	0.129064
5.818000	0.137595
5.820000	0.146462
5.822000	0.154994
5.824000	0.164780
5.826000	0.173646
5.828000	0.181509
5.830000	0.187364
5.832000	0.189204
5.834000	0.186444
5.836000	0.178498
5.838000	0.166620
5.840000	0.149473
5.842000	0.129398
5.844000	0.106480
5.846000	0.082055
5.848000	0.057631
5.850000	0.034127
5.852000	0.012798
5.854000	-0.006441
5.856000	-0.024424
5.858000	-0.039397
5.860000	-0.049769
5.862000	-0.056460
5.864000	-0.059890
5.866000	-0.059555
5.868000	-0.056209
5.870000	-0.051023
5.872000	-0.045503
5.874000	-0.040902
5.876000	-0.035716
5.878000	-0.031450
5.880000	-0.028105
5.882000	-0.025344
5.884000	-0.022584
5.886000	-0.020493
5.888000	-0.019238
5.890000	-0.017733
5.892000	-0.017398
5.894000	-0.018653
5.896000	-0.021413
5.898000	-0.027185
5.900000	-0.032370
5.902000	-0.036636
5.904000	-0.040651
5.906000	-0.042742
5.908000	-0.043077
5.910000	-0.041237
5.912000	-0.037306
5.914000	-0.032705
5.916000	-0.028690
5.918000	-0.025679
5.920000	-0.022919
5.922000	-0.021078
5.924000	-0.018987
5.926000	-0.017733
5.928000	-0.018067
5.930000	-0.018318
5.932000	-0.018653
5.934000	-0.019238
5.936000	-0.020158
5.938000	-0.021999
5.940000	-0.024173
5.942000	-0.026599
5.944000	-0.029025
5.946000	-0.030530
5.948000	-0.032120
5.950000	-0.032705
5.952000	-0.032370
5.954000	-0.030530
5.956000	-0.029025
5.958000	-0.027770
5.960000	-0.025679
5.962000	-0.024173
5.964000	-0.021664
5.966000	-0.019573
5.968000	-0.017733
5.970000	-0.014721
5.972000	-0.011627
5.974000	-0.009201
5.976000	-0.007361
5.978000	-0.006441
5.980000	-0.005186
5.982000	-0.003680
5.984000	-0.001840
5.986000	0.000251
5.988000	0.000586
5.990000	0.000920
5.992000	0.001171
5.994000	0.000920
5.996000	-0.000920
5.998000	-0.003680
6.000000	-0.007695
6.002000	-0.011961
6.004000	-0.014972
6.006000	-0.016227
6.008000	-0.016478
6.010000	-0.016813
6.012000	-0.014972
6.014000	-0.012547
6.016000	-0.010121
6.018000	-0.006441
6.020000	-0.003680
6.022000	-0.000920
6.024000	0.001506
6.026000	0.004517
6.028000	0.010623
6.030000	0.018904
6.032000	0.029527
6.034000	0.039982
6.036000	0.049434
6.038000	0.057046
6.040000	0.063737
6.042000	0.068589
6.044000	0.070429
6.046000	0.069258
6.048000	0.066163
6.050000	0.060726
6.052000	0.054871
6.054000	0.050354
6.056000	0.047594
6.058000	0.045168
6.060000	0.041739
6.062000	0.038142
6.064000	0.033876
6.066000	0.028356
6.068000	0.022584
6.070000	0.016729
6.072000	0.010957
6.074000	0.006942
6.076000	0.004517
6.078000	0.004266
6.080000	0.003931
6.082000	0.004851
6.084000	0.005437
6.086000	0.006106
6.088000	0.005771
6.090000	0.003597
6.092000	0.000920
6.094000	-0.002509
6.096000	-0.004935
6.098000	-0.006106
6.100000	-0.007026
6.102000	-0.007026
6.104000	-0.007026
6.106000	-0.006106
6.108000	-0.005855
6.110000	-0.006106
6.112000	-0.007695
6.114000	-0.011041
6.116000	-0.015307
6.118000	-0.020493
6.120000	-0.026013
6.122000	-0.029610
6.124000	-0.027519
6.126000	-0.013801
6.128000	0.015558
6.130000	0.060977
6.132000	0.122038
6.134000	0.192801
6.136000	0.269754
6.138000	0.346038
6.140000	0.412535
6.142000	0.460464
6.144000	0.480957
6.146000	0.468995
6.148000	0.423242
6.150000	0.345118
6.152000	0.239558
6.154000	0.114677
6.156000	-0.016813
6.158000	-0.143200
6.160000	-0.253025
6.162000	-0.339681
6.164000	-0.397396
6.166000	-0.421820
6.168000	-0.414125
6.170000	-0.378492
6.172000	-0.322032
6.174000	-0.255451
6.176000	-0.186778
6.178000	-0.125132
6.180000	-0.074778
6.182000	-0.035716
6.184000	-0.008866
6.186000	0.005186
6.188000	0.010037
6.190000	0.007612
6.192000	0.001757
6.194000	-0.004600
6.196000	-0.011292
6.198000	-0.016478
6.200000	-0.019238
6.202000	-0.020828
6.204000	-0.020828
6.206000	-0.019238
6.208000	-0.015307
6.210000	-0.010121
6.212000	-0.004266
6.214000	0.002426
6.216000	0.008197
6.218000	0.014638
6.220000	0.020409
6.222000	0.025010
6.224000	0.028941
6.226000	0.032036
6.228000	0.033876
6.230000	0.034127
6.232000	0.034127
6.234000	0.033542
6.236000	0.031701
6.238000	0.028690
6.240000	0.026181
6.242000	0.023755
6.244000	0.021664
6.246000	0.021915
6.248000	0.023504
6.250000	0.026850
6.252000	0.031701
6.254000	0.036887
6.256000	0.040819
6.258000	0.044499
6.260000	0.046925
6.262000	0.048514
6.264000	0.049099
6.266000	0.049685
6.268000	0.052111
6.270000	0.055791
6.272000	0.062817
6.274000	0.071683
6.276000	0.083310
6.278000	0.095773
6.280000	0.108320
6.282000	0.118943
6.284000	0.129064
6.286000	0.136341
6.288000	0.141527
6.290000	0.144287
6.292000	0.147633
6.294000	0.151313
6.296000	0.154994
6.298000	0.158925
6.300000	0.164445
6.302000	0.169631
6.304000	0.172392
6.306000	0.171472
6.308000	0.165951
6.310000	0.154994
6.312000	0.139101
6.314000	0.118692
6.316000	0.093682
6.318000	0.065912
6.320000	0.038393
6.322000	0.012798
6.324000	-0.010121
6.326000	-0.029359
6.328000	-0.044248
6.330000	-0.054955
6.332000	-0.062315
6.334000	-0.066247
6.336000	-0.066832
6.338000	-0.065076
6.340000	-0.061981
6.342000	-0.058635
6.344000	-0.054369
6.346000	-0.050689
6.348000	-0.047677
6.350000	-0.044917
6.352000	-0.042742
6.354000	-0.042491
6.356000	-0.042491
6.358000	-0.043412
6.360000	-0.045168
6.362000	-0.047008
6.364000	-0.048848
6.366000	-0.049769
6.368000	-0.051023
6.370000	-0.052529
6.372000	-0.052529
6.374000	-0.051023
6.376000	-0.049434
6.378000	-0.047343
6.380000	-0.044248
6.382000	-0.039982
6.384000	-0.035465
6.386000	-0.031199
6.388000	-0.027770
6.390000	-0.026013
6.392000	-0.025344
6.394000	-0.027185
6.396000	-0.029610
6.398000	-0.032705
6.400000	-0.035716
6.402000	-0.038811
6.404000	-0.040317
6.406000	-0.039982
6.408000	-0.036971
6.410000	-0.032705
6.412000	-0.027770
6.414000	-0.022333
6.416000	-0.017398
6.418000	-0.013467
6.420000	-0.010707
6.422000	-0.010121
6.424000	-0.011041
6.426000	-0.013801
6.428000	-0.017398
6.430000	-0.022333
6.432000	-0.027770
6.434000	-0.032120
6.436000	-0.034796
6.438000	-0.036971
6.440000	-0.036971
6.442000	-0.036051
6.444000	-0.032120
6.446000	-0.025679
6.448000	-0.017398
6.450000	-0.008281
6.452000	0.000920
6.454000	0.009452
6.456000	0.017398
6.458000	0.023504
6.460000	0.027101
6.462000	0.027101
6.464000	0.024341
6.466000	0.019489
6.468000	0.013969
6.470000	0.006942
6.472000	-0.000920
6.474000	-0.007026
6.476000	-0.010707
6.478000	-0.011627
6.480000	-0.011041
6.482000	-0.009201
6.484000	-0.006106
6.486000	-0.002760
6.488000	0.001171
6.490000	0.004851
6.492000	0.006692
6.494000	0.007612
6.496000	0.007277
6.498000	0.008197
6.500000	0.010623
6.502000	0.013969
6.504000	0.017398
6.506000	0.021329
6.508000	0.025595
6.510000	0.030447
6.512000	0.035633
6.514000	0.040568
6.516000	0.043328
6.518000	0.044834
6.520000	0.046005
6.522000	0.046674
6.524000	0.046005
6.526000	0.046674
6.528000	0.047259
6.530000	0.048514
6.532000	0.050019
6.534000	0.052111
6.536000	0.053365
6.538000	0.053951
6.540000	0.052111
6.542000	0.048179
6.544000	0.041739
6.546000	0.034127
6.548000	0.025930
6.550000	0.017984
6.552000	0.011543
6.554000	0.006692
6.556000	0.004266
6.558000	0.006106
6.560000	0.009452
6.562000	0.011878
6.564000	0.014638
6.566000	0.015809
6.568000	0.015809
6.570000	0.013383
6.572000	0.009703
6.574000	0.005771
6.576000	0.000920
6.578000	-0.002760
6.580000	-0.006106
6.582000	-0.007695
6.584000	-0.008281
6.586000	-0.009201
6.588000	-0.009535
6.590000	-0.008615
6.592000	-0.008281
6.594000	-0.007026
6.596000	-0.005855
6.598000	-0.005186
6.600000	-0.004935
6.602000	-0.004266
6.604000	-0.000335
6.606000	0.011543
6.608000	0.034127
6.610000	0.069509
6.612000	0.118692
6.614000	0.178832
6.616000	0.244995
6.618000	0.313082
6.620000	0.378074
6.622000	0.430603
6.624000	0.461384
6.626000	0.464730
6.628000	0.434868
6.630000	0.372553
6.632000	0.282217
6.634000	0.169631
6.636000	0.044834
6.638000	-0.080299
6.640000	-0.195059
6.642000	-0.289661
6.644000	-0.357079
6.646000	-0.392795
6.648000	-0.395806
6.650000	-0.367785
6.652000	-0.315926
6.654000	-0.250014
6.656000	-0.178832
6.658000	-0.110829
6.660000	-0.052194
6.662000	-0.007026
6.664000	0.023170
6.666000	0.039062
6.668000	0.042993
6.670000	0.038393
6.672000	0.029276
6.674000	0.019155
6.676000	0.008532
6.678000	0.000920
6.680000	-0.003680
6.682000	-0.003680
6.684000	-0.001840
6.686000	0.001506
6.688000	0.004851
6.690000	0.008197
6.692000	0.011292
6.694000	0.013383
6.696000	0.014638
6.698000	0.016478
6.700000	0.017649
6.702000	0.018569
6.704000	0.020744
6.706000	0.023170
6.708000	0.026515
6.710000	0.029861
6.712000	0.033207
6.714000	0.035633
6.716000	0.038393
6.718000	0.040568
6.720000	0.042408
6.722000	0.042408
6.724000	0.041739
6.726000	0.040568
6.728000	0.039648
6.730000	0.038393
6.732000	0.037473
6.734000	0.037473
6.736000	0.038393
6.738000	0.041153
6.740000	0.044834
6.742000	0.049434
6.744000	0.054285
6.746000	0.059806
6.748000	0.066832
6.750000	0.075029
6.752000	0.082055
6.754000	0.088747
6.756000	0.094853
6.758000	0.100374
6.760000	0.106480
6.762000	0.111080
6.764000	0.114677
6.766000	0.118943
6.768000	0.122372
6.770000	0.125718
6.772000	0.129984
6.774000	0.135504
6.776000	0.142196
6.778000	0.150728
6.780000	0.158674
6.782000	0.166871
6.784000	0.173897
6.786000	0.177243
6.788000	0.176323
6.790000	0.170551
6.792000	0.160765
6.794000	0.146462
6.796000	0.128144
6.798000	0.106145
6.800000	0.081470
6.802000	0.055791
6.804000	0.031701
6.806000	0.010623
6.808000	-0.007361
6.810000	-0.022333
6.812000	-0.034211
6.814000	-0.043663
6.816000	-0.049769
6.818000	-0.053783
6.820000	-0.054620
6.822000	-0.054955
6.824000	-0.053783
6.826000	-0.051943
6.828000	-0.049769
6.830000	-0.046423
6.832000	-0.042742
6.834000	-0.039062
6.836000	-0.037306
6.838000	-0.035465
6.840000	-0.034545
6.842000	-0.034796
6.844000	-0.035465
6.846000	-0.037306
6.848000	-0.038477
6.850000	-0.039731
6.852000	-0.039731
6.854000	-0.038477
6.856000	-0.037556
6.858000	-0.036051
6.860000	-0.032705
6.862000	-0.028690
6.864000	-0.025679
6.866000	-0.022919
6.868000	-0.020493
6.870000	-0.018318
6.872000	-0.016813
6.874000	-0.017398
6.876000	-0.020158
6.878000	-0.024173
6.880000	-0.029025
6.882000	-0.034545
6.884000	-0.039982
6.886000	-0.044248
6.888000	-0.047928
6.890000	-0.050103
6.892000	-0.050689
6.894000	-0.050354
6.896000	-0.047928
6.898000	-0.043663
6.900000	-0.039982
6.902000	-0.035465
6.904000	-0.030865
6.906000	-0.026264
6.908000	-0.021664
6.910000	-0.016478
6.912000	-0.012212
6.914000	-0.009201
6.916000	-0.007026
6.918000	-0.005186
6.920000	-0.003095
6.922000	-0.000920
6.924000	0.000586
6.926000	0.000251
6.928000	-0.000669
6.930000	-0.002175
6.932000	-0.004266
6.934000	-0.006106
6.936000	-0.009201
6.938000	-0.012212
6.940000	-0.014387
6.942000	-0.016478
6.944000	-0.018987
6.946000	-0.020493
6.948000	-0.021078
6.950000	-0.021664
6.952000	-0.021413
6.954000	-0.020493
6.956000	-0.019238
6.958000	-0.018653
6.960000	-0.018067
6.962000	-0.016478
6.964000	-0.014387
6.966000	-0.010372
6.968000	-0.007026
6.970000	-0.003429
6.972000	0.002091
6.974000	0.006692
6.976000	0.010037
6.978000	0.012798
6.980000	0.013383
6.982000	0.012463
6.984000	0.010957
6.986000	0.007612
6.988000	0.003597
6.990000	-0.001255
6.992000	-0.004935
6.994000	-0.007946
6.996000	-0.009535
6.998000	-0.008866
7.000000	-0.008281
7.002000	-0.006775
7.004000	-0.004266
7.006000	-0.000669
7.008000	0.004517
7.010000	0.009452
7.012000	0.014303
7.014000	0.018235
7.016000	0.022584
7.018000	0.025930
7.020000	0.028356
7.022000	0.031116
7.024000	0.034462
7.026000	0.037807
7.028000	0.041488
7.030000	0.044248
7.032000	0.047594
7.034000	0.049099
7.036000	0.049099
7.038000	0.045419
7.040000	0.039982
7.042000	0.031116
7.044000	0.021664
7.046000	0.010623
7.048000	0.000251
7.050000	-0.009201
7.052000	-0.016478
7.054000	-0.022333
7.056000	-0.025344
7.058000	-0.026264
7.060000	-0.024759
7.062000	-0.022584
7.064000	-0.019573
7.066000	-0.016478
7.068000	-0.014052
7.070000	-0.012547
7.072000	-0.011292
7.074000	-0.010707
7.076000	-0.011292
7.078000	-0.011961
7.080000	-0.012881
7.082000	-0.012547
7.084000	-0.011627
7.086000	-0.010372
7.088000	-0.008866
7.090000	-0.007026
7.092000	-0.006775
7.094000	-0.007026
7.096000	-0.007946
7.098000	-0.010707
7.100000	-0.014721
7.102000	-0.016227
7.104000	-0.010121
7.106000	0.007277
7.108000	0.039982
7.110000	0.087576
7.112000	0.148887
7.114000	0.214465
7.116000	0.283472
7.118000	0.348129
7.120000	0.400992
7.122000	0.431188
7.124000	0.433614
7.126000	0.404924
7.128000	0.346372
7.130000	0.261222
7.132000	0.154408
7.134000	0.041153
7.136000	-0.076033
7.138000	-0.182513
7.140000	-0.272263
7.142000	-0.334829
7.144000	-0.371131
7.146000	-0.378492
7.148000	-0.359839
7.150000	-0.318351
7.152000	-0.264317
7.154000	-0.204846
7.156000	-0.146211
7.158000	-0.094602
7.160000	-0.052529
7.162000	-0.022584
7.164000	-0.003095
7.166000	0.006942
7.168000	0.010623
7.170000	0.008783
7.172000	0.003597
7.174000	-0.001840
7.176000	-0.008281
7.178000	-0.014387
7.180000	-0.018987
7.182000	-0.021664
7.184000	-0.022919
7.186000	-0.022333
7.188000	-0.018987
7.190000	-0.013801
7.192000	-0.008281
7.194000	-0.002760
7.196000	0.001757
7.198000	0.006357
7.200000	0.010037
7.202000	0.013718
7.204000	0.017064
7.206000	0.019155
7.208000	0.021329
7.210000	0.022835
7.212000	0.023755
7.214000	0.024090
7.216000	0.023504
7.218000	0.023170
7.220000	0.022835
7.222000	0.022249
7.224000	0.021915
7.226000	0.022249
7.228000	0.025261
7.230000	0.029861
7.232000	0.036302
7.234000	0.042408
7.236000	0.047594
7.238000	0.052111
7.240000	0.054620
7.242000	0.056126
7.244000	0.056126
7.246000	0.055540
7.248000	0.054620
7.250000	0.053700
7.252000	0.054285
7.254000	0.056711
7.256000	0.062566
7.258000	0.068589
7.260000	0.076869
7.262000	0.085987
7.264000	0.095522
7.266000	0.104974
7.268000	0.114426
7.270000	0.123292
7.272000	0.132744
7.274000	0.142196
7.276000	0.151062
7.278000	0.158925
7.280000	0.166871
7.282000	0.171806
7.284000	0.173646
7.286000	0.171472
7.288000	0.162940
7.290000	0.149473
7.292000	0.130904
7.294000	0.108320
7.296000	0.082055
7.298000	0.055791
7.300000	0.030447
7.302000	0.007612
7.304000	-0.011627
7.306000	-0.027185
7.308000	-0.037556
7.310000	-0.043077
7.312000	-0.046757
7.314000	-0.047928
7.316000	-0.048848
7.318000	-0.049769
7.320000	-0.051023
7.322000	-0.052529
7.324000	-0.054955
7.326000	-0.058049
7.328000	-0.061061
7.330000	-0.063235
7.332000	-0.065076
7.334000	-0.066832
7.336000	-0.067501
7.338000	-0.067167
7.340000	-0.066832
7.342000	-0.066832
7.344000	-0.067501
7.346000	-0.069007
7.348000	-0.070261
7.350000	-0.071433
7.352000	-0.072687
7.354000	-0.072353
7.356000	-0.072687
7.358000	-0.072353
7.360000	-0.072018
7.362000	-0.070847
7.364000	-0.069341
7.366000	-0.066581
7.368000	-0.063235
7.370000	-0.060475
7.372000	-0.057715
7.374000	-0.055289
7.376000	-0.052194
7.378000	-0.049434
7.380000	-0.047677
7.382000	-0.045837
7.384000	-0.043997
7.386000	-0.043663
7.388000	-0.043412
7.390000	-0.041822
7.392000	-0.040317
7.394000	-0.038142
7.396000	-0.036636
7.398000	-0.036385
7.400000	-0.036051
7.402000	-0.036971
7.404000	-0.038477
7.406000	-0.040651
7.408000	-0.042742
7.410000	-0.043997
7.412000	-0.045168
7.414000	-0.044917
7.416000	-0.043997
7.418000	-0.041822
7.420000	-0.038477
7.422000	-0.034545
7.424000	-0.030865
7.426000	-0.027185
7.428000	-0.023839
7.430000	-0.020828
7.432000	-0.018987
7.434000	-0.017733
7.436000	-0.016227
7.438000	-0.015892
7.440000	-0.016227
7.442000	-0.017398
7.444000	-0.018318
7.446000	-0.018987
7.448000	-0.019573
7.450000	-0.019907
7.452000	-0.019238
7.454000	-0.018987
7.456000	-0.019573
7.458000	-0.018987
7.460000	-0.017398
7.462000	-0.016227
7.464000	-0.016227
7.466000	-0.017147
7.468000	-0.018653
7.470000	-0.020158
7.472000	-0.021999
7.474000	-0.023839
7.476000	-0.025344
7.478000	-0.027519
7.480000	-0.026599
7.482000	-0.024759
7.484000	-0.022584
7.486000	-0.018653
7.488000	-0.014387
7.490000	-0.009786
7.492000	-0.005855
7.494000	-0.002760
7.496000	-0.000920
7.498000	-0.000335
7.500000	-0.001255
7.502000	-0.002509
7.504000	-0.004266
7.506000	-0.006441
7.508000	-0.007946
7.510000	-0.008281
7.512000	-0.007946
7.514000	-0.007695
7.516000	-0.007361
7.518000	-0.007361
7.520000	-0.006775
7.522000	-0.004935
7.524000	-0.003095
7.526000	-0.001840
7.528000	0.000251
7.530000	0.003597
7.532000	0.007277
7.534000	0.010372
7.536000	0.013718
7.538000	0.017398
7.540000	0.019489
7.542000	0.021329
7.544000	0.021664
7.546000	0.021915
7.548000	0.021329
7.550000	0.020075
7.552000	0.019824
7.554000	0.018569
7.556000	0.016143
7.558000	0.013049
7.560000	0.009117
7.562000	0.006106
7.564000	0.003597
7.566000	0.000251
7.568000	-0.002760
7.570000	-0.003429
7.572000	-0.001840
7.574000	0.000920
7.576000	0.004517
7.578000	0.009452
7.580000	0.014638
7.582000	0.019489
7.584000	0.023755
7.586000	0.027435
7.588000	0.029527
7.590000	0.031367
7.592000	0.034796
7.594000	0.037807
7.596000	0.039982
7.598000	0.041488
7.600000	0.042073
7.602000	0.041488
7.604000	0.039062
7.606000	0.035047
7.608000	0.029276
7.610000	0.023170
7.612000	0.015809
7.614000	0.008197
7.616000	0.002091
7.618000	-0.001589
7.620000	-0.003095
7.622000	-0.004015
7.624000	-0.004600
7.626000	-0.004266
7.628000	-0.002509
7.630000	-0.000669
7.632000	0.001171
7.634000	0.003346
7.636000	0.005771
7.638000	0.008783
7.640000	0.010957
7.642000	0.012463
7.644000	0.014303
7.646000	0.014638
7.648000	0.014303
7.650000	0.012212
7.652000	0.010037
7.654000	0.006942
7.656000	0.004517
7.658000	0.002091
7.660000	0.000000
7.662000	-0.001589
7.664000	-0.001840
7.666000	-0.002509
7.668000	-0.003095
7.670000	-0.004935
7.672000	-0.005855
7.674000	-0.006106
7.676000	-0.002175
7.678000	0.011292
7.680000	0.036887
7.682000	0.078124
7.684000	0.131824
7.686000	0.195561
7.688000	0.264233
7.690000	0.331651
7.692000	0.392712
7.694000	0.437880
7.696000	0.458624
7.698000	0.448001
7.700000	0.405509
7.702000	0.334160
7.704000	0.239558
7.706000	0.127809
7.708000	0.008783
7.710000	-0.105894
7.712000	-0.205682
7.714000	-0.281715
7.716000	-0.330229
7.718000	-0.350053
7.720000	-0.341856
7.722000	-0.308230
7.724000	-0.258796
7.726000	-0.201165
7.728000	-0.142530
7.730000	-0.091005
7.732000	-0.050354
7.734000	-0.022333
7.736000	-0.005521
7.738000	0.002426
7.740000	0.004517
7.742000	0.002677
7.744000	-0.000335
7.746000	-0.002760
7.748000	-0.003680
7.750000	-0.002760
7.752000	-0.000335
7.754000	0.003011
7.756000	0.006942
7.758000	0.010957
7.760000	0.014303
7.762000	0.016478
7.764000	0.017984
7.766000	0.019489
7.768000	0.020744
7.770000	0.021329
7.772000	0.021329
7.774000	0.021329
7.776000	0.020995
7.778000	0.021329
7.780000	0.021915
7.782000	0.022249
7.784000	0.022584
7.786000	0.023504
7.788000	0.025010
7.790000	0.026850
7.792000	0.028021
7.794000	0.028941
7.796000	0.029861
7.798000	0.032036
7.800000	0.033876
7.802000	0.036553
7.804000	0.039062
7.806000	0.040233
7.808000	0.040819
7.810000	0.042408
7.812000	0.043579
7.814000	0.045168
7.816000	0.046339
7.818000	0.049099
7.820000	0.053031
7.822000	0.057046
7.824000	0.062232
7.826000	0.068923
7.828000	0.076869
7.830000	0.085736
7.832000	0.094602
7.834000	0.102465
7.836000	0.110411
7.838000	0.117772
7.840000	0.124798
7.842000	0.130569
7.844000	0.136090
7.846000	0.142196
7.848000	0.148887
7.850000	0.155579
7.852000	0.162020
7.854000	0.168460
7.856000	0.173897
7.858000	0.176992
7.860000	0.176657
7.862000	0.172977
7.864000	0.165031
7.866000	0.151648
7.868000	0.132744
7.870000	0.110411
7.872000	0.085401
7.874000	0.059806
7.876000	0.034796
7.878000	0.011878
7.880000	-0.008281
7.882000	-0.024759
7.884000	-0.035131
7.886000	-0.041822
7.888000	-0.045837
7.890000	-0.047008
7.892000	-0.045837
7.894000	-0.043997
7.896000	-0.041822
7.898000	-0.041237
7.900000	-0.040902
7.902000	-0.040317
7.904000	-0.039731
7.906000	-0.040317
7.908000	-0.040317
7.910000	-0.040317
7.912000	-0.039982
7.914000	-0.038142
7.916000	-0.036636
7.918000	-0.034796
7.920000	-0.032705
7.922000	-0.030530
7.924000	-0.030279
7.926000	-0.029610
7.928000	-0.031199
7.930000	-0.033291
7.932000	-0.036971
7.934000	-0.040651
7.936000	-0.043412
7.938000	-0.045503
7.940000	-0.046088
7.942000	-0.044917
7.944000	-0.041571
7.946000	-0.036636
7.948000	-0.030279
7.950000	-0.023253
7.952000	-0.016478
7.954000	-0.011627
7.956000	-0.009201
7.958000	-0.009535
7.960000	-0.011961
7.962000	-0.016813
7.964000	-0.023253
7.966000	-0.030279
7.968000	-0.037306
7.970000	-0.043663
7.972000	-0.047008
7.974000	-0.048263
7.976000	-0.047677
7.978000	-0.044917
7.980000	-0.040902
7.982000	-0.035131
7.984000	-0.029610
7.986000	-0.024424
7.988000	-0.019238
7.990000	-0.016478
7.992000	-0.014972
7.994000	-0.014052
7.996000	-0.014387
7.998000	-0.016813
8.000000	-0.019573
8.002000	-0.022919
8.004000	-0.024759
8.006000	-0.026264
8.008000	-0.027185
8.010000	-0.027185
8.012000	-0.025093
8.014000	-0.021664
8.016000	-0.018067
8.018000	-0.013801
8.020000	-0.010707
8.022000	-0.007695
8.024000	-0.004935
8.026000	-0.003095
8.028000	-0.001255
8.030000	-0.000335
8.032000	-0.000669
8.034000	-0.001589
8.036000	-0.003429
8.038000	-0.003429
8.040000	-0.004015
8.042000	-0.004015
8.044000	-0.004935
8.046000	-0.005186
8.048000	-0.005186
8.050000	-0.004266
8.052000	-0.003429
8.054000	-0.002760
8.056000	-0.002175
8.058000	-0.001589
8.060000	0.000000
8.062000	0.001171
8.064000	0.001757
8.066000	0.002677
8.068000	0.003011
8.070000	0.003597
8.072000	0.003597
8.074000	0.003597
8.076000	0.003346
8.078000	0.003597
8.080000	0.005437
8.082000	0.007863
8.084000	0.010623
8.086000	0.012463
8.088000	0.013969
8.090000	0.014303
8.092000	0.013969
8.094000	0.012463
8.096000	0.010623
8.098000	0.008532
8.100000	0.006357
8.102000	0.004517
8.104000	0.004851
8.106000	0.006357
8.108000	0.008532
8.110000	0.011878
8.112000	0.014889
8.114000	0.017649
8.116000	0.020075
8.118000	0.021664
8.120000	0.021915
8.122000	0.021664
8.124000	0.020995
8.126000	0.019489
8.128000	0.017984
8.130000	0.016478
8.132000	0.015809
8.134000	0.017064
8.136000	0.018904
8.138000	0.022584
8.140000	0.026515
8.142000	0.030196
8.144000	0.034462
8.146000	0.038142
8.148000	0.041153
8.150000	0.044248
8.152000	0.046674
8.154000	0.049434
8.156000	0.051274
8.158000	0.053951
8.160000	0.056711
8.162000	0.057297
8.164000	0.056126
8.166000	0.052780
8.168000	0.046674
8.170000	0.038393
8.172000	0.028021
8.174000	0.016478
8.176000	0.006106
8.178000	-0.002509
8.180000	-0.008281
8.182000	-0.012212
8.184000	-0.013132
8.186000	-0.011292
8.188000	-0.008281
8.190000	-0.004935
8.192000	-0.000335
8.194000	0.002677
8.196000	0.003931
8.198000	0.003931
8.200000	0.001506
8.202000	-0.001840
8.204000	-0.005521
8.206000	-0.008866
8.208000	-0.011961
8.210000	-0.014387
8.212000	-0.016478
8.214000	-0.017147
8.216000	-0.017398
8.218000	-0.016813
8.220000	-0.015307
8.222000	-0.013467
8.224000	-0.012547
8.226000	-0.011961
8.228000	-0.012212
8.230000	-0.011041
8.232000	-0.006775
8.234000	0.006357
8.236000	0.031367
8.238000	0.072269
8.240000	0.124212
8.242000	0.188870
8.244000	0.256956
8.246000	0.328974
8.248000	0.391791
8.250000	0.442480
8.252000	0.468745
8.254000	0.464730
8.256000	0.428428
8.258000	0.357915
8.260000	0.264233
8.262000	0.147633
8.264000	0.025261
8.266000	-0.100457
8.268000	-0.204846
8.270000	-0.291167
8.272000	-0.346707
8.274000	-0.372637
8.276000	-0.368036
8.278000	-0.336921
8.280000	-0.286901
8.282000	-0.223080
8.284000	-0.163023
8.286000	-0.104723
8.288000	-0.060140
8.290000	-0.026013
8.292000	-0.004600
8.294000	0.006942
8.296000	0.009452
8.298000	0.006357
8.300000	0.001171
8.302000	-0.004600
8.304000	-0.008866
8.306000	-0.010707
8.308000	-0.008866
8.310000	-0.004015
8.312000	0.002677
8.314000	0.010957
8.316000	0.018235
8.318000	0.026181
8.320000	0.032036
8.322000	0.035382
8.324000	0.035047
8.326000	0.032621
8.328000	0.028941
8.330000	0.024090
8.332000	0.019489
8.334000	0.016729
8.336000	0.015809
8.338000	0.016729
8.340000	0.018904
8.342000	0.022835
8.344000	0.026850
8.346000	0.032036
8.348000	0.036553
8.350000	0.040568
8.352000	0.043913
8.354000	0.046674
8.356000	0.049434
8.358000	0.051274
8.360000	0.052780
8.362000	0.053951
8.364000	0.056460
8.366000	0.058886
8.368000	0.062566
8.370000	0.065243
8.372000	0.068923
8.374000	0.071683
8.376000	0.074695
8.378000	0.077790
8.380000	0.081135
8.382000	0.084481
8.384000	0.090002
8.386000	0.095773
8.388000	0.101294
8.390000	0.107651
8.392000	0.114426
8.394000	0.122372
8.396000	0.130235
8.398000	0.138850
8.400000	0.146127
8.402000	0.153739
8.404000	0.162354
8.406000	0.171806
8.408000	0.180923
8.410000	0.190375
8.412000	0.198321
8.414000	0.203842
8.416000	0.204427
8.418000	0.199242
8.420000	0.187949
8.422000	0.171472
8.424000	0.149808
8.426000	0.122958
8.428000	0.093682
8.430000	0.064072
8.432000	0.035967
8.434000	0.011292
8.436000	-0.008615
8.438000	-0.022584
8.440000	-0.030530
8.442000	-0.034211
8.444000	-0.034796
8.446000	-0.033876
8.448000	-0.032705
8.450000	-0.031785
8.452000	-0.031450
8.454000	-0.031785
8.456000	-0.033291
8.458000	-0.035131
8.460000	-0.037306
8.462000	-0.038811
8.464000	-0.038811
8.466000	-0.037556
8.468000	-0.035716
8.470000	-0.033291
8.472000	-0.032120
8.474000	-0.030865
8.476000	-0.030530
8.478000	-0.029945
8.480000	-0.030279
8.482000	-0.031450
8.484000	-0.032705
8.486000	-0.032956
8.488000	-0.032956
8.490000	-0.032705
8.492000	-0.031450
8.494000	-0.030279
8.496000	-0.028439
8.498000	-0.026264
8.500000	-0.024173
8.502000	-0.023253
8.504000	-0.021664
8.506000	-0.020493
8.508000	-0.019573
8.510000	-0.018318
8.512000	-0.015892
8.514000	-0.013801
8.516000	-0.011961
8.518000	-0.010121
8.520000	-0.008615
8.522000	-0.008281
8.524000	-0.008281
8.526000	-0.009201
8.528000	-0.010707
8.530000	-0.012547
8.532000	-0.014972
8.534000	-0.016227
8.536000	-0.014972
8.538000	-0.014052
8.540000	-0.011961
8.542000	-0.010372
8.544000	-0.006775
8.546000	-0.002509
8.548000	0.001757
8.550000	0.004266
8.552000	0.005186
8.554000	0.005771
8.556000	0.006357
8.558000	0.006357
8.560000	0.004851
8.562000	0.003011
8.564000	-0.000335
8.566000	-0.003680
8.568000	-0.006775
8.570000	-0.008866
8.572000	-0.010121
8.574000	-0.010707
8.576000	-0.011292
8.578000	-0.011041
8.580000	-0.009786
8.582000	-0.007695
8.584000	-0.005521
8.586000	-0.002760
8.588000	-0.000669
8.590000	0.000586
8.592000	0.002091
8.594000	0.003597
8.596000	0.004851
8.598000	0.006357
8.600000	0.007612
8.602000	0.008783
8.604000	0.010372
8.606000	0.011543
8.608000	0.013049
8.610000	0.014303
8.612000	0.014889
8.614000	0.015223
8.616000	0.015223
8.618000	0.014889
8.620000	0.014303
8.622000	0.013383
8.624000	0.010957
8.626000	0.008197
8.628000	0.005437
8.630000	0.003931
8.632000	0.002426
8.634000	0.000586
8.636000	-0.001255
8.638000	-0.001589
8.640000	-0.001255
8.642000	-0.000669
8.644000	0.000920
8.646000	0.002091
8.648000	0.004517
8.650000	0.007277
8.652000	0.009703
8.654000	0.012463
8.656000	0.014303
8.658000	0.014638
8.660000	0.014889
8.662000	0.013718
8.664000	0.011292
8.666000	0.006357
8.668000	0.001171
8.670000	-0.003429
8.672000	-0.007026
8.674000	-0.010121
8.676000	-0.011961
8.678000	-0.012881
8.680000	-0.011292
8.682000	-0.009535
8.684000	-0.005521
8.686000	-0.000669
8.688000	0.005186
8.690000	0.010037
8.692000	0.013718
8.694000	0.016143
8.696000	0.018235
8.698000	0.019489
8.700000	0.017398
8.702000	0.013049
8.704000	0.007277
8.706000	0.001171
8.708000	-0.004015
8.710000	-0.007361
8.712000	-0.010707
8.714000	-0.012212
8.716000	-0.011041
8.718000	-0.007946
8.720000	-0.004015
8.722000	0.000251
8.724000	0.004851
8.726000	0.009703
8.728000	0.014889
8.730000	0.020409
8.732000	0.025261
8.734000	0.029276
8.736000	0.033207
8.738000	0.038393
8.740000	0.043328
8.742000	0.046674
8.744000	0.046925
8.746000	0.045419
8.748000	0.041488
8.750000	0.034796
8.752000	0.026515
8.754000	0.017064
8.756000	0.006692
8.758000	-0.002760
8.760000	-0.010121
8.762000	-0.013467
8.764000	-0.013132
8.766000	-0.010707
8.768000	-0.008281
8.770000	-0.004266
8.772000	-0.000335
8.774000	0.001506
8.776000	0.000251
8.778000	-0.003429
8.780000	-0.007946
8.782000	-0.013467
8.784000	-0.018653
8.786000	-0.022919
8.788000	-0.024759
8.790000	-0.024759
8.792000	-0.022333
8.794000	-0.018318
8.796000	-0.014387
8.798000	-0.011627
8.800000	-0.010121
8.802000	-0.009201
8.804000	-0.008615
8.806000	-0.009535
8.808000	-0.011627
8.810000	-0.013467
8.812000	-0.014387
8.814000	-0.014387
8.816000	-0.014721
8.818000	-0.014972
8.820000	-0.011041
8.822000	0.001757
8.824000	0.028356
8.826000	0.070429
8.828000	0.126638
8.830000	0.193135
8.832000	0.265739
8.834000	0.338426
8.836000	0.404924
8.838000	0.454943
8.840000	0.480287
8.842000	0.473930
8.844000	0.435454
8.846000	0.366196
8.848000	0.269419
8.850000	0.152568
8.852000	0.027435
8.854000	-0.094017
8.856000	-0.201751
8.858000	-0.288741
8.860000	-0.347962
8.862000	-0.376317
8.864000	-0.372637
8.866000	-0.342441
8.868000	-0.291752
8.870000	-0.231947
8.872000	-0.169380
8.874000	-0.111415
8.876000	-0.064406
8.878000	-0.031450
8.880000	-0.011292
8.882000	-0.002175
8.884000	-0.001589
8.886000	-0.005855
8.888000	-0.012547
8.890000	-0.019238
8.892000	-0.026013
8.894000	-0.030279
8.896000	-0.032370
8.898000	-0.031450
8.900000	-0.027185
8.902000	-0.020158
8.904000	-0.012547
8.906000	-0.004935
8.908000	0.003346
8.910000	0.010372
8.912000	0.015223
8.914000	0.017984
8.916000	0.017984
8.918000	0.015558
8.920000	0.012463
8.922000	0.009117
8.924000	0.006692
8.926000	0.004851
8.928000	0.003011
8.930000	0.001506
8.932000	0.000920
8.934000	0.001757
8.936000	0.003011
8.938000	0.003597
8.940000	0.005771
8.942000	0.008783
8.944000	0.010623
8.946000	0.012212
8.948000	0.013969
8.950000	0.015809
8.952000	0.016729
8.954000	0.017649
8.956000	0.018235
8.958000	0.019489
8.960000	0.020409
8.962000	0.023170
8.964000	0.027770
8.966000	0.035047
8.968000	0.043579
8.970000	0.053700
8.972000	0.065243
8.974000	0.075615
8.976000	0.085150
8.978000	0.093013
8.980000	0.098533
8.982000	0.101628
8.984000	0.103385
8.986000	0.104054
8.988000	0.105225
8.990000	0.107651
8.992000	0.112586
8.994000	0.120783
8.996000	0.131489
8.998000	0.143701
9.000000	0.154994
9.002000	0.164780
9.004000	0.170551
9.006000	0.171137
9.008000	0.164111
9.010000	0.149222
9.012000	0.128144
9.014000	0.101879
9.016000	0.072938
9.018000	0.042073
9.020000	0.013969
9.022000	-0.011961
9.024000	-0.032705
9.026000	-0.048598
9.028000	-0.058300
9.030000	-0.064406
9.032000	-0.066581
9.034000	-0.065912
9.036000	-0.063821
9.038000	-0.061061
9.040000	-0.058300
9.042000	-0.055540
9.044000	-0.054034
9.046000	-0.053449
9.048000	-0.053449
9.050000	-0.053449
9.052000	-0.053114
9.054000	-0.054955
9.056000	-0.057715
9.058000	-0.060475
9.060000	-0.063235
9.062000	-0.065326
9.064000	-0.068087
9.066000	-0.069341
9.068000	-0.070847
9.070000	-0.071767
9.072000	-0.071182
9.074000	-0.069927
9.076000	-0.066247
9.078000	-0.061981
9.080000	-0.055540
9.082000	-0.050689
9.084000	-0.046757
9.086000	-0.043412
9.088000	-0.039982
9.090000	-0.038811
9.092000	-0.037891
9.094000	-0.038142
9.096000	-0.039982
9.098000	-0.042491
9.100000	-0.044917
9.102000	-0.045837
9.104000	-0.045837
9.106000	-0.045503
9.108000	-0.044583
9.110000	-0.043663
9.112000	-0.042491
9.114000	-0.041571
9.116000	-0.040651
9.118000	-0.039982
9.120000	-0.039397
9.122000	-0.040317
9.124000	-0.041822
9.126000	-0.043077
9.128000	-0.043997
9.130000	-0.043997
9.132000	-0.043077
9.134000	-0.042491
9.136000	-0.041571
9.138000	-0.039982
9.140000	-0.039062
9.142000	-0.038477
9.144000	-0.036971
9.146000	-0.036051
9.148000	-0.034796
9.150000	-0.032705
9.152000	-0.029945
9.154000	-0.028105
9.156000	-0.026599
9.158000	-0.026264
9.160000	-0.026013
9.162000	-0.027185
9.164000	-0.028439
9.166000	-0.030865
9.168000	-0.032705
9.170000	-0.032705
9.172000	-0.031785
9.174000	-0.030530
9.176000	-0.028439
9.178000	-0.025344
9.180000	-0.022333
9.182000	-0.021078
9.184000	-0.020493
9.186000	-0.019573
9.188000	-0.018318
9.190000	-0.018653
9.192000	-0.019238
9.194000	-0.018987
9.196000	-0.018653
9.198000	-0.018318
9.200000	-0.019907
9.202000	-0.021413
9.204000	-0.023504
9.206000	-0.025344
9.208000	-0.027185
9.210000	-0.028690
9.212000	-0.030530
9.214000	-0.030865
9.216000	-0.029610
9.218000	-0.027770
9.220000	-0.026013
9.222000	-0.023839
9.224000	-0.022919
9.226000	-0.022333
9.228000	-0.021999
9.230000	-0.021999
9.232000	-0.021999
9.234000	-0.021999
9.236000	-0.021413
9.238000	-0.019907
9.240000	-0.018653
9.242000	-0.016813
9.244000	-0.014972
9.246000	-0.013467
9.248000	-0.012547
9.250000	-0.013132
9.252000	-0.014972
9.254000	-0.017398
9.256000	-0.019238
9.258000	-0.019238
9.260000	-0.018653
9.262000	-0.019238
9.264000	-0.018987
9.266000	-0.016813
9.268000	-0.015558
9.270000	-0.014052
9.272000	-0.012881
9.274000	-0.012547
9.276000	-0.012547
9.278000	-0.014052
9.280000	-0.017147
9.282000	-0.020158
9.284000	-0.022919
9.286000	-0.025679
9.288000	-0.027770
9.290000	-0.030530
9.292000	-0.032120
9.294000	-0.032705
9.296000	-0.032120
9.298000	-0.030865
9.300000	-0.029610
9.302000	-0.028105
9.304000	-0.026850
9.306000	-0.025344
9.308000	-0.023504
9.310000	-0.021078
9.312000	-0.019238
9.314000	-0.016227
9.316000	-0.011961
9.318000	-0.007946
9.320000	-0.004935
9.322000	-0.003095
9.324000	-0.001840
9.326000	-0.001255
9.328000	-0.001255
9.330000	-0.003095
9.332000	-0.006106
9.334000	-0.009535
9.336000	-0.013467
9.338000	-0.016227
9.340000	-0.018653
9.342000	-0.020828
9.344000	-0.021078
9.346000	-0.018653
9.348000	-0.014721
9.350000	-0.010121
9.352000	-0.006106
9.354000	-0.003095
9.356000	0.000000
9.358000	0.000000
9.360000	-0.002760
9.362000	-0.006441
9.364000	-0.011961
9.366000	-0.016813
9.368000	-0.020158
9.370000	-0.021664
9.372000	-0.019238
9.374000	-0.014972
9.376000	-0.008615
9.378000	0.000251
9.380000	0.008783
9.382000	0.017064
9.384000	0.025261
9.386000	0.032287
9.388000	0.037473
9.390000	0.040819
9.392000	0.041488
9.394000	0.039982
9.396000	0.034796
9.398000	0.026515
9.400000	0.016478
9.402000	0.004517
9.404000	-0.007946
9.406000	-0.021078
9.408000	-0.032705
9.410000	-0.040902
9.412000	-0.046088
9.414000	-0.048263
9.416000	-0.047008
9.418000	-0.043997
9.420000	-0.039062
9.422000	-0.033625
9.424000	-0.028439
9.426000	-0.023504
9.428000	-0.019907
9.430000	-0.016227
9.432000	-0.013132
9.434000	-0.010707
9.436000	-0.008866
9.438000	-0.008281
9.440000	-0.008615
9.442000	-0.009535
9.444000	-0.012212
9.446000	-0.015892
9.448000	-0.021413
9.450000	-0.027519
9.452000	-0.032370
9.454000	-0.036636
9.456000	-0.040651
9.458000	-0.043997
9.460000	-0.045168
9.462000	-0.044583
9.464000	-0.042491
9.466000	-0.039731
9.468000	-0.037306
9.470000	-0.034796
9.472000	-0.030279
9.474000	-0.019573
9.476000	0.002091
9.478000	0.037807
9.480000	0.087827
9.482000	0.148887
9.484000	0.216974
9.486000	0.288658
9.488000	0.356995
9.490000	0.413790
9.492000	0.451012
9.494000	0.460129
9.496000	0.438214
9.498000	0.384765
9.500000	0.303044
9.502000	0.198656
9.504000	0.081470
9.506000	-0.037556
9.508000	-0.149306
9.510000	-0.244159
9.512000	-0.316511
9.514000	-0.361094
9.516000	-0.375732
9.518000	-0.363520
9.520000	-0.328974
9.522000	-0.280795
9.524000	-0.226510
9.526000	-0.171890
9.528000	-0.122121
9.530000	-0.081554
9.532000	-0.051023
9.534000	-0.030530
9.536000	-0.018318
9.538000	-0.013132
9.540000	-0.012212
9.542000	-0.014721
9.544000	-0.018653
9.546000	-0.021413
9.548000	-0.022584
9.550000	-0.022333
9.552000	-0.021078
9.554000	-0.018653
9.556000	-0.014972
9.558000	-0.010707
9.560000	-0.006106
9.562000	-0.002509
9.564000	-0.000669
9.566000	0.000000
9.568000	-0.000335
9.570000	-0.000669
9.572000	-0.001589
9.574000	-0.001840
9.576000	-0.001840
9.578000	-0.001840
9.580000	-0.001255
9.582000	0.000000
9.584000	0.001757
9.586000	0.003931
9.588000	0.007277
9.590000	0.011878
9.592000	0.014303
9.594000	0.016478
9.596000	0.017398
9.598000	0.017984
9.600000	0.017649
9.602000	0.016143
9.604000	0.015558
9.606000	0.014638
9.608000	0.014303
9.610000	0.015558
9.612000	0.018235
9.614000	0.022249
9.616000	0.028021
9.618000	0.034127
9.620000	0.042408
9.622000	0.049434
9.624000	0.055791
9.626000	0.063152
9.628000	0.071683
9.630000	0.079630
9.632000	0.087241
9.634000	0.094268
9.636000	0.100039
9.638000	0.104974
9.640000	0.108905
9.642000	0.112920
9.644000	0.117186
9.646000	0.121117
9.648000	0.125969
9.650000	0.131489
9.652000	0.137930
9.654000	0.143367
9.656000	0.148887
9.658000	0.152233
9.660000	0.151313
9.662000	0.145876
9.664000	0.133915
9.666000	0.116852
9.668000	0.095188
9.670000	0.071349
9.672000	0.046005
9.674000	0.020744
9.676000	-0.003429
9.678000	-0.024173
9.680000	-0.040902
9.682000	-0.053114
9.684000	-0.060726
9.686000	-0.065076
9.688000	-0.067167
9.690000	-0.067501
9.692000	-0.065912
9.694000	-0.062566
9.696000	-0.058635
9.698000	-0.054955
9.700000	-0.052194
9.702000	-0.050354
9.704000	-0.048848
9.706000	-0.047928
9.708000	-0.047928
9.710000	-0.049769
9.712000	-0.052194
9.714000	-0.055540
9.716000	-0.058300
9.718000	-0.061395
9.720000	-0.063486
9.722000	-0.063821
9.724000	-0.060726
9.726000	-0.054955
9.728000	-0.047677
9.730000	-0.039982
9.732000	-0.032370
9.734000	-0.025679
9.736000	-0.021999
9.738000	-0.021999
9.740000	-0.025679
9.742000	-0.032370
9.744000	-0.041571
9.746000	-0.051609
9.748000	-0.061061
9.750000	-0.069341
9.752000	-0.074527
9.754000	-0.075447
9.756000	-0.072687
9.758000	-0.067501
9.760000	-0.058300
9.762000	-0.047677
9.764000	-0.036971
9.766000	-0.028105
9.768000	-0.021999
9.770000	-0.018067
9.772000	-0.016813
9.774000	-0.018067
9.776000	-0.022584
9.778000	-0.028439
9.780000	-0.034545
9.782000	-0.038477
9.784000	-0.040651
9.786000	-0.040317
9.788000	-0.037891
9.790000	-0.033625
9.792000	-0.029025
9.794000	-0.023839
9.796000	-0.019238
9.798000	-0.015558
9.800000	-0.012881
9.802000	-0.011292
9.804000	-0.010121
9.806000	-0.010121
9.808000	-0.011292
9.810000	-0.012212
9.812000	-0.011292
9.814000	-0.010707
9.816000	-0.010372
9.818000	-0.010372
9.820000	-0.010707
9.822000	-0.009535
9.824000	-0.008866
9.826000	-0.008866
9.828000	-0.010372
9.830000	-0.011627
9.832000	-0.013132
9.834000	-0.014721
9.836000	-0.015558
9.838000	-0.016813
9.840000	-0.017398
9.842000	-0.018318
9.844000	-0.018653
9.846000	-0.018318
9.848000	-0.017398
9.850000	-0.016227
9.852000	-0.014721
9.854000	-0.011961
9.856000	-0.007695
9.858000	-0.002760
9.860000	0.002677
9.862000	0.006106
9.864000	0.010372
9.866000	0.012212
9.868000	0.013718
9.870000	0.011878
9.872000	0.008783
9.874000	0.005186
9.876000	0.000920
9.878000	-0.002760
9.880000	-0.004600
9.882000	-0.005186
9.884000	-0.004600
9.886000	-0.002760
9.888000	-0.000669
9.890000	0.001757
9.892000	0.002426
9.894000	0.002677
9.896000	0.000920
9.898000	-0.001840
9.900000	-0.005186
9.902000	-0.008866
9.904000	-0.012547
9.906000	-0.015307
9.908000	-0.016478
9.910000	-0.016478
9.912000	-0.015307
9.914000	-0.012881
9.916000	-0.010372
9.918000	-0.007026
9.920000	-0.003429
9.922000	-0.000335
9.924000	0.001757
9.926000	0.003931
9.928000	0.005186
9.930000	0.007612
9.932000	0.009117
9.934000	0.011292
9.936000	0.015558
9.938000	0.021329
9.940000	0.024675
9.942000	0.026181
9.944000	0.026181
9.946000	0.025010
9.948000	0.021329
9.950000	0.016729
9.952000	0.012212
9.954000	0.009703
9.956000	0.008532
9.958000	0.009117
9.960000	0.012463
9.962000	0.017984
9.964000	0.024341
9.966000	0.031701
9.968000	0.041153
9.970000	0.050605
9.972000	0.060726
9.974000	0.067752
9.976000	0.072269
9.978000	0.074695
9.980000	0.072938
9.982000	0.067418
9.984000	0.056711
9.986000	0.041739
9.988000	0.024090
9.990000	0.006692
9.992000	-0.008866
9.994000	-0.021999
9.996000	-0.031199
9.998000	-0.036385
10.000000	-0.036971
10.002000	-0.034796
10.004000	-0.030279
10.006000	-0.025679
10.008000	-0.020493
10.010000	-0.015307
10.012000	-0.010707
10.014000	-0.007026
10.016000	-0.005855
10.018000	-0.006441
10.020000	-0.008866
10.022000	-0.012212
10.024000	-0.017147
10.026000	-0.023504
10.028000	-0.029945
10.030000	-0.036051
10.032000	-0.040317
10.034000	-0.042742
10.036000	-0.042742
10.038000	-0.040317
10.040000	-0.035716
10.042000	-0.029945
10.044000	-0.024173
10.046000	-0.019573
10.048000	-0.015892
10.050000	-0.012212
10.052000	-0.001840
10.054000	0.018904
10.056000	0.053031
10.058000	0.100959
10.060000	0.161685
10.062000	0.231863
10.064000	0.306976
10.066000	0.379579
10.068000	0.441895
10.070000	0.483633
10.072000	0.495845
10.074000	0.474181
10.076000	0.418056
10.078000	0.331065
10.080000	0.219985
10.082000	0.091507
10.084000	-0.039982
10.086000	-0.163274
10.088000	-0.267997
10.090000	-0.346121
10.092000	-0.393130
10.094000	-0.406847
10.096000	-0.389784
10.098000	-0.348547
10.100000	-0.291502
10.102000	-0.227681
10.104000	-0.163943
10.106000	-0.106814
10.108000	-0.061395
10.110000	-0.028105
10.112000	-0.006106
10.114000	0.005771
10.116000	0.011543
10.118000	0.011878
10.120000	0.008532
10.122000	0.004517
10.124000	0.001757
10.126000	-0.000669
10.128000	-0.002509
10.130000	-0.002760
10.132000	-0.003429
10.134000	-0.002509
10.136000	0.000251
10.138000	0.003346
10.140000	0.005771
10.142000	0.006942
10.144000	0.010037
10.146000	0.014303
10.148000	0.017649
10.150000	0.019824
10.152000	0.021664
10.154000	0.022249
10.156000	0.022584
10.158000	0.022249
10.160000	0.020995
10.162000	0.019824
10.164000	0.018569
10.166000	0.017984
10.168000	0.019155
10.170000	0.021664
10.172000	0.025595
10.174000	0.030781
10.176000	0.036887
10.178000	0.044499
10.180000	0.051860
10.182000	0.057631
10.184000	0.063403
10.186000	0.068003
10.188000	0.072269
10.190000	0.075615
10.192000	0.078124
10.194000	0.078124
10.196000	0.078124
10.198000	0.077790
10.200000	0.078124
10.202000	0.079044
10.204000	0.080801
10.206000	0.084481
10.208000	0.089082
10.210000	0.095188
10.212000	0.101628
10.214000	0.108571
10.216000	0.115346
10.218000	0.121703
10.220000	0.128729
10.222000	0.136341
10.224000	0.144287
10.226000	0.153153
10.228000	0.162940
10.230000	0.172726
10.232000	0.180338
10.234000	0.184018
10.236000	0.183098
10.238000	0.175737
10.240000	0.161685
10.242000	0.140941
10.244000	0.116266
10.246000	0.088496
10.248000	0.058886
10.250000	0.031367
10.252000	0.006942
10.254000	-0.013132
10.256000	-0.028690
10.258000	-0.039982
10.260000	-0.045503
10.262000	-0.047008
10.264000	-0.045168
10.266000	-0.040651
10.268000	-0.034796
10.270000	-0.028690
10.272000	-0.023839
10.274000	-0.021078
10.276000	-0.020158
10.278000	-0.021664
10.280000	-0.024759
10.282000	-0.029945
10.284000	-0.036385
10.286000	-0.042742
10.288000	-0.048598
10.290000	-0.052194
10.292000	-0.054034
10.294000	-0.053114
10.296000	-0.051609
10.298000	-0.048848
10.300000	-0.046088
10.302000	-0.042157
10.304000	-0.039062
10.306000	-0.036385
10.308000	-0.033876
10.310000	-0.030865
10.312000	-0.028439
10.314000	-0.025093
10.316000	-0.021664
10.318000	-0.018653
10.320000	-0.017733
10.322000	-0.018067
10.324000	-0.020493
10.326000	-0.024173
10.328000	-0.028690
10.330000	-0.033876
10.332000	-0.038477
10.334000	-0.042491
10.336000	-0.044583
10.338000	-0.044248
10.340000	-0.041822
10.342000	-0.039062
10.344000	-0.034796
10.346000	-0.031199
10.348000	-0.028439
10.350000	-0.026599
10.352000	-0.025093
10.354000	-0.024173
10.356000	-0.023253
10.358000	-0.023504
10.360000	-0.021999
10.362000	-0.018987
10.364000	-0.016478
10.366000	-0.014972
10.368000	-0.013801
10.370000	-0.013801
10.372000	-0.013801
10.374000	-0.015892
10.376000	-0.018653
10.378000	-0.021664
10.380000	-0.023839
10.382000	-0.024759
10.384000	-0.023504
10.386000	-0.020493
10.388000	-0.016227
10.390000	-0.011627
10.392000	-0.006106
10.394000	-0.002175
10.396000	0.000586
10.398000	0.002091
10.400000	0.003011
10.402000	0.002677
10.404000	0.000586
10.406000	-0.001589
10.408000	-0.004015
10.410000	-0.006775
10.412000	-0.009535
10.414000	-0.013132
10.416000	-0.016227
10.418000	-0.018653
10.420000	-0.019907
10.422000	-0.020828
10.424000	-0.021078
10.426000	-0.020493
10.428000	-0.019907
10.430000	-0.018318
10.432000	-0.016227
10.434000	-0.014052
10.436000	-0.012212
10.438000	-0.011292
10.440000	-0.011627
10.442000	-0.012212
10.444000	-0.012881
10.446000	-0.013467
10.448000	-0.014721
10.450000	-0.016227
10.452000	-0.018067
10.454000	-0.019573
10.456000	-0.019238
10.458000	-0.017733
10.460000	-0.015307
10.462000	-0.011961
10.464000	-0.008866
10.466000	-0.006106
10.468000	-0.003095
10.470000	-0.001589
10.472000	-0.001255
10.474000	-0.003095
10.476000	-0.005855
10.478000	-0.010372
10.480000	-0.014721
10.482000	-0.018987
10.484000	-0.022584
10.486000	-0.023839
10.488000	-0.022584
10.490000	-0.018318
10.492000	-0.012881
10.494000	-0.007695
10.496000	-0.001589
10.498000	0.002677
10.500000	0.005186
10.502000	0.003931
10.504000	0.000000
10.506000	-0.005521
10.508000	-0.011041
10.510000	-0.015558
10.512000	-0.018987
10.514000	-0.019907
10.516000	-0.019238
10.518000	-0.017398
10.520000	-0.014721
10.522000	-0.011292
10.524000	-0.008615
10.526000	-0.006106
10.528000	-0.002509
10.530000	0.003346
10.532000	0.009703
10.534000	0.017064
10.536000	0.024341
10.538000	0.030781
10.540000	0.036302
10.542000	0.037473
10.544000	0.036302
10.546000	0.033876
10.548000	0.031367
10.550000	0.029861
10.552000	0.028690
10.554000	0.026850
10.556000	0.026181
10.558000	0.025595
10.560000	0.027101
10.562000	0.026181
10.564000	0.020995
10.566000	0.013049
10.568000	0.001757
10.570000	-0.009535
10.572000	-0.021078
10.574000	-0.032370
10.576000	-0.042157
10.578000	-0.049183
10.580000	-0.052194
10.582000	-0.051943
10.584000	-0.048848
10.586000	-0.043997
10.588000	-0.036636
10.590000	-0.029945
10.592000	-0.025093
10.594000	-0.022919
10.596000	-0.024173
10.598000	-0.027770
10.600000	-0.033876
10.602000	-0.040651
10.604000	-0.047677
10.606000	-0.051943
10.608000	-0.054369
10.610000	-0.054955
10.612000	-0.053783
10.614000	-0.050354
10.616000	-0.047008
10.618000	-0.043077
10.620000	-0.040902
10.622000	-0.040317
10.624000	-0.040902
10.626000	-0.039397
10.628000	-0.032120
10.630000	-0.013801
10.632000	0.019824
10.634000	0.069509
10.636000	0.132075
10.638000	0.204427
10.640000	0.280711
10.642000	0.354570
10.644000	0.417136
10.646000	0.457703
10.648000	0.468745
10.650000	0.443651
10.652000	0.384180
10.654000	0.292924
10.656000	0.177578
10.658000	0.047594
10.660000	-0.084230
10.662000	-0.204846
10.664000	-0.304299
10.666000	-0.375397
10.668000	-0.416634
10.670000	-0.424246
10.672000	-0.401662
10.674000	-0.354988
10.676000	-0.295767
10.678000	-0.231947
10.680000	-0.172475
10.682000	-0.121787
10.684000	-0.083059
10.686000	-0.058049
10.688000	-0.044583
10.690000	-0.040651
10.692000	-0.042491
10.694000	-0.046088
10.696000	-0.049769
10.698000	-0.051943
10.700000	-0.051609
10.702000	-0.048598
10.704000	-0.043077
10.706000	-0.036636
10.708000	-0.030530
10.710000	-0.025679
10.712000	-0.021078
10.714000	-0.018067
10.716000	-0.016227
10.718000	-0.015307
10.720000	-0.016227
10.722000	-0.016227
10.724000	-0.016478
10.726000	-0.016813
10.728000	-0.017733
10.730000	-0.018318
10.732000	-0.017733
10.734000	-0.017147
10.736000	-0.015892
10.738000	-0.014387
10.740000	-0.012547
10.742000	-0.009535
10.744000	-0.005186
10.746000	0.000586
10.748000	0.005437
10.750000	0.010037
10.752000	0.012798
10.754000	0.014303
10.756000	0.014303
10.758000	0.013049
10.760000	0.011292
10.762000	0.008197
10.764000	0.005437
10.766000	0.004517
10.768000	0.006357
10.770000	0.010372
10.772000	0.016729
10.774000	0.024675
10.776000	0.034127
10.778000	0.044248
10.780000	0.054285
10.782000	0.064323
10.784000	0.072938
10.786000	0.079295
10.788000	0.084816
10.790000	0.089416
10.792000	0.092427
10.794000	0.094853
10.796000	0.097948
10.798000	0.101628
10.800000	0.106145
10.802000	0.112920
10.804000	0.119863
10.806000	0.127809
10.808000	0.134835
10.810000	0.140356
10.812000	0.141861
10.814000	0.139436
10.816000	0.131489
10.818000	0.117437
10.820000	0.098868
10.822000	0.076869
10.824000	0.053031
10.826000	0.027770
10.828000	0.003597
10.830000	-0.019238
10.832000	-0.039062
10.834000	-0.055540
10.836000	-0.068672
10.838000	-0.077873
10.840000	-0.083645
10.842000	-0.086405
10.844000	-0.085819
10.846000	-0.083059
10.848000	-0.079044
10.850000	-0.074527
10.852000	-0.070847
10.854000	-0.068087
10.856000	-0.068087
10.858000	-0.070512
10.860000	-0.073607
10.862000	-0.076618
10.864000	-0.079044
10.866000	-0.080633
10.868000	-0.080633
10.870000	-0.078459
10.872000	-0.073607
10.874000	-0.068421
10.876000	-0.063486
10.878000	-0.058300
10.880000	-0.055540
10.882000	-0.055289
10.884000	-0.057715
10.886000	-0.061395
10.888000	-0.066247
10.890000	-0.070261
10.892000	-0.074527
10.894000	-0.077873
10.896000	-0.079379
10.898000	-0.080299
10.900000	-0.078793
10.902000	-0.076618
10.904000	-0.073607
10.906000	-0.070512
10.908000	-0.067752
10.910000	-0.067167
10.912000	-0.067501
10.914000	-0.069592
10.916000	-0.072938
10.918000	-0.075113
10.920000	-0.077204
10.922000	-0.078793
10.924000	-0.078124
10.926000	-0.075113
10.928000	-0.069007
10.930000	-0.058635
10.932000	-0.047677
10.934000	-0.037556
10.936000	-0.030279
10.938000	-0.023839
10.940000	-0.021413
10.942000	-0.024759
10.944000	-0.032370
10.946000	-0.043663
10.948000	-0.055289
10.950000	-0.066247
10.952000	-0.075447
10.954000	-0.080884
10.956000	-0.083310
10.958000	-0.080884
10.960000	-0.074527
10.962000	-0.065661
10.964000	-0.057380
10.966000	-0.049434
10.968000	-0.043412
10.970000	-0.038811
10.972000	-0.036051
10.974000	-0.034796
10.976000	-0.033876
10.978000	-0.034545
10.980000	-0.035716
10.982000	-0.037556
10.984000	-0.039062
10.986000	-0.040902
10.988000	-0.043412
10.990000	-0.045168
10.992000	-0.046423
10.994000	-0.047677
10.996000	-0.047928
10.998000	-0.047677
11.000000	-0.046423
11.002000	-0.044248
11.004000	-0.040902
11.006000	-0.037556
11.008000	-0.033876
11.010000	-0.030530
11.012000	-0.027185
11.014000	-0.023839
11.016000	-0.021078
11.018000	-0.018653
11.020000	-0.017398
11.022000	-0.017733
11.024000	-0.020158
11.026000	-0.023839
11.028000	-0.027770
11.030000	-0.032120
11.032000	-0.036636
11.034000	-0.039397
11.036000	-0.039731
11.038000	-0.038811
11.040000	-0.037891
11.042000	-0.035716
11.044000	-0.032705
11.046000	-0.029945
11.048000	-0.028690
11.050000	-0.028690
11.052000	-0.029945
11.054000	-0.031785
11.056000	-0.034211
11.058000	-0.037306
11.060000	-0.039982
11.062000	-0.041822
11.064000	-0.042157
11.066000	-0.042157
11.068000	-0.040651
11.070000	-0.038811
11.072000	-0.036385
11.074000	-0.032370
11.076000	-0.027519
11.078000	-0.021999
11.080000	-0.017147
11.082000	-0.011961
11.084000	-0.007361
11.086000	-0.002760
11.088000	0.000920
11.090000	0.003011
11.092000	0.004851
11.094000	0.006357
11.096000	0.007277
11.098000	0.008532
11.100000	0.010957
11.102000	0.012463
11.104000	0.014303
11.106000	0.015223
11.108000	0.016478
11.110000	0.018904
11.112000	0.020995
11.114000	0.023755
11.116000	0.025930
11.118000	0.027770
11.120000	0.028690
11.122000	0.029527
11.124000	0.028941
11.126000	0.027101
11.128000	0.022249
11.130000	0.016478
11.132000	0.009703
11.134000	0.003597
11.136000	-0.002509
11.138000	-0.007361
11.140000	-0.010121
11.142000	-0.011292
11.144000	-0.011292
11.146000	-0.010121
11.148000	-0.008615
11.150000	-0.008281
11.152000	-0.008615
11.154000	-0.010372
11.156000	-0.013801
11.158000	-0.018067
11.160000	-0.023504
11.162000	-0.028439
11.164000	-0.032120
11.166000	-0.033876
11.168000	-0.034545
11.170000	-0.033291
11.172000	-0.030865
11.174000	-0.027185
11.176000	-0.022919
11.178000	-0.019238
11.180000	-0.016227
11.182000	-0.013801
11.184000	-0.012547
11.186000	-0.011627
11.188000	-0.011627
11.190000	-0.013467
11.192000	-0.014721
11.194000	-0.010707
11.196000	0.002677
11.198000	0.029276
11.200000	0.070429
11.202000	0.125969
11.204000	0.192215
11.206000	0.263648
11.208000	0.334746
11.210000	0.397647
11.212000	0.443066
11.214000	0.463224
11.216000	0.451346
11.218000	0.404924
11.220000	0.328054
11.222000	0.224920
11.224000	0.104639
11.226000	-0.021664
11.228000	-0.142865
11.230000	-0.245413
11.232000	-0.323203
11.234000	-0.371717
11.236000	-0.389449
11.238000	-0.378492
11.240000	-0.342441
11.242000	-0.289327
11.244000	-0.228601
11.246000	-0.168795
11.248000	-0.115681
11.250000	-0.072938
11.252000	-0.042742
11.254000	-0.023253
11.256000	-0.011627
11.258000	-0.005186
11.260000	-0.001840
11.262000	-0.000669
11.264000	0.000920
11.266000	0.002677
11.268000	0.004517
11.270000	0.006357
11.272000	0.008783
11.274000	0.010037
11.276000	0.010037
11.278000	0.008197
11.280000	0.006942
11.282000	0.004517
11.284000	0.002677
11.286000	0.001506
11.288000	0.001506
11.290000	0.003346
11.292000	0.006106
11.294000	0.009452
11.296000	0.012463
11.298000	0.014638
11.300000	0.016478
11.302000	0.017649
11.304000	0.019489
11.306000	0.020995
11.308000	0.024675
11.310000	0.028021
11.312000	0.031367
11.314000	0.034127
11.316000	0.036302
11.318000	0.038393
11.320000	0.039313
11.322000	0.038142
11.324000	0.035967
11.326000	0.033207
11.328000	0.031116
11.330000	0.029861
11.332000	0.029527
11.334000	0.031701
11.336000	0.035633
11.338000	0.040819
11.340000	0.047845
11.342000	0.054871
11.344000	0.063152
11.346000	0.071683
11.348000	0.080801
11.350000	0.090587
11.352000	0.100039
11.354000	0.108320
11.356000	0.115346
11.358000	0.121452
11.360000	0.127558
11.362000	0.132995
11.364000	0.138850
11.366000	0.143116
11.368000	0.147633
11.370000	0.152233
11.372000	0.156834
11.374000	0.161100
11.376000	0.163860
11.378000	0.164111
11.380000	0.161434
11.382000	0.156248
11.384000	0.146462
11.386000	0.132075
11.388000	0.113757
11.390000	0.091842
11.392000	0.066832
11.394000	0.040233
11.396000	0.014638
11.398000	-0.008281
11.400000	-0.026850
11.402000	-0.039397
11.404000	-0.047677
11.406000	-0.053783
11.408000	-0.056460
11.410000	-0.055540
11.412000	-0.053449
11.414000	-0.053449
11.416000	-0.055875
11.418000	-0.059890
11.420000	-0.064406
11.422000	-0.069341
11.424000	-0.072687
11.426000	-0.074778
11.428000	-0.076033
11.430000	-0.074527
11.432000	-0.071182
11.434000	-0.066581
11.436000	-0.061646
11.438000	-0.058300
11.440000	-0.054955
11.442000	-0.052194
11.444000	-0.050354
11.446000	-0.048598
11.448000	-0.048598
11.450000	-0.048598
11.452000	-0.048598
11.454000	-0.048598
11.456000	-0.048848
11.458000	-0.048598
11.460000	-0.049183
11.462000	-0.049769
11.464000	-0.049769
11.466000	-0.049434
11.468000	-0.049183
11.470000	-0.048598
11.472000	-0.048263
11.474000	-0.047343
11.476000	-0.047008
11.478000	-0.047343
11.480000	-0.047677
11.482000	-0.047343
11.484000	-0.047677
11.486000	-0.048598
11.488000	-0.049434
11.490000	-0.050354
11.492000	-0.051023
11.494000	-0.050689
11.496000	-0.049769
11.498000	-0.048263
11.500000	-0.045837
11.502000	-0.043077
11.504000	-0.038811
11.506000	-0.034545
11.508000	-0.030865
11.510000	-0.028105
11.512000	-0.025344
11.514000	-0.023839
11.516000	-0.023504
11.518000	-0.024173
11.520000	-0.027185
11.522000	-0.030865
11.524000	-0.036051
11.526000	-0.040651
11.528000	-0.045168
11.530000	-0.049183
11.532000	-0.051943
11.534000	-0.054369
11.536000	-0.054034
11.538000	-0.051023
11.540000	-0.046088
11.542000	-0.040651
11.544000	-0.034545
11.546000	-0.029025
11.548000	-0.022919
11.550000	-0.019238
11.552000	-0.016813
11.554000	-0.016227
11.556000	-0.015892
11.558000	-0.017398
11.560000	-0.020493
11.562000	-0.023504
11.564000	-0.026850
11.566000	-0.029610
11.568000	-0.033291
11.570000	-0.036385
11.572000	-0.039731
11.574000	-0.040651
11.576000	-0.041237
11.578000	-0.041822
11.580000	-0.042157
11.582000	-0.041571
11.584000	-0.039731
11.586000	-0.035716
11.588000	-0.031785
11.590000	-0.028105
11.592000	-0.025344
11.594000	-0.023504
11.596000	-0.021413
11.598000	-0.020158
11.600000	-0.019573
11.602000	-0.020158
11.604000	-0.022333
11.606000	-0.025093
11.608000	-0.027185
11.610000	-0.029025
11.612000	-0.030530
11.614000	-0.030279
11.616000	-0.029945
11.618000	-0.028690
11.620000	-0.026013
11.622000	-0.022919
11.624000	-0.019238
11.626000	-0.016227
11.628000	-0.012881
11.630000	-0.010707
11.632000	-0.010121
11.634000	-0.010372
11.636000	-0.011041
11.638000	-0.008866
11.640000	-0.008281
11.642000	-0.008281
11.644000	-0.008615
11.646000	-0.005521
11.648000	-0.000669
11.650000	0.003931
11.652000	0.006942
11.654000	0.009117
11.656000	0.010037
11.658000	0.010623
11.660000	0.012212
11.662000	0.013718
11.664000	0.015223
11.666000	0.017064
11.668000	0.020075
11.670000	0.023755
11.672000	0.028021
11.674000	0.030781
11.676000	0.031367
11.678000	0.031116
11.680000	0.028356
11.682000	0.022584
11.684000	0.014638
11.686000	0.005437
11.688000	-0.003095
11.690000	-0.011041
11.692000	-0.017398
11.694000	-0.021999
11.696000	-0.024424
11.698000	-0.024759
11.700000	-0.023504
11.702000	-0.022584
11.704000	-0.020828
11.706000	-0.018987
11.708000	-0.017398
11.710000	-0.016227
11.712000	-0.017398
11.714000	-0.020158
11.716000	-0.022584
11.718000	-0.023839
11.720000	-0.024173
11.722000	-0.024424
11.724000	-0.024759
11.726000	-0.025679
11.728000	-0.027185
11.730000	-0.028439
11.732000	-0.029945
11.734000	-0.031450
11.736000	-0.032705
11.738000	-0.033876
11.740000	-0.033876
11.742000	-0.032956
11.744000	-0.032705
11.746000	-0.029025
11.748000	-0.019573
11.750000	0.002677
11.752000	0.039982
11.754000	0.092762
11.756000	0.158674
11.758000	0.232532
11.760000	0.309736
11.762000	0.384514
11.764000	0.446411
11.766000	0.486728
11.768000	0.496180
11.770000	0.470585
11.772000	0.411030
11.774000	0.321614
11.776000	0.210199
11.778000	0.085401
11.780000	-0.039731
11.782000	-0.155997
11.784000	-0.252690
11.786000	-0.324708
11.788000	-0.367200
11.790000	-0.379663
11.792000	-0.363185
11.794000	-0.323537
11.796000	-0.268917
11.798000	-0.206602
11.800000	-0.144705
11.802000	-0.089416
11.804000	-0.043663
11.806000	-0.010121
11.808000	0.010037
11.810000	0.019489
11.812000	0.018904
11.814000	0.012212
11.816000	0.001171
11.818000	-0.011041
11.820000	-0.023504
11.822000	-0.034796
11.824000	-0.042742
11.826000	-0.047008
11.828000	-0.046757
11.830000	-0.042742
11.832000	-0.034545
11.834000	-0.024759
11.836000	-0.013132
11.838000	-0.000669
11.840000	0.012212
11.842000	0.024090
11.844000	0.033876
11.846000	0.041488
11.848000	0.046005
11.850000	0.047845
11.852000	0.047594
11.854000	0.045168
11.856000	0.041488
11.858000	0.037473
11.860000	0.033542
11.862000	0.028690
11.864000	0.024675
11.866000	0.021329
11.868000	0.019489
11.870000	0.018235
11.872000	0.017649
11.874000	0.017984
11.876000	0.019489
11.878000	0.022249
11.880000	0.027101
11.882000	0.032621
11.884000	0.038727
11.886000	0.043913
11.888000	0.048514
11.890000	0.052111
11.892000	0.054620
11.894000	0.057297
11.896000	0.061646
11.898000	0.067752
11.900000	0.074109
11.902000	0.081135
11.904000	0.090002
11.906000	0.098868
11.908000	0.107985
11.910000	0.115011
11.912000	0.121703
11.914000	0.126638
11.916000	0.130904
11.918000	0.135755
11.920000	0.142781
11.922000	0.152819
11.924000	0.163525
11.926000	0.174232
11.928000	0.183349
11.930000	0.189455
11.932000	0.189790
11.934000	0.183098
11.936000	0.169297
11.938000	0.150393
11.940000	0.125969
11.942000	0.098199
11.944000	0.068003
11.946000	0.039313
11.948000	0.013383
11.950000	-0.007026
11.952000	-0.022584
11.954000	-0.033291
11.956000	-0.040317
11.958000	-0.044917
11.960000	-0.046757
11.962000	-0.046088
11.964000	-0.044583
11.966000	-0.043663
11.968000	-0.043997
11.970000	-0.044917
11.972000	-0.046757
11.974000	-0.048848
11.976000	-0.050103
11.978000	-0.052863
11.980000	-0.055875
11.982000	-0.058300
11.984000	-0.058969
11.986000	-0.060140
11.988000	-0.060475
11.990000	-0.060475
11.992000	-0.059890
11.994000	-0.059555
11.996000	-0.058969
11.998000	-0.058300
12.000000	-0.057129
12.002000	-0.055540
12.004000	-0.052863
12.006000	-0.049769
12.008000	-0.045168
12.010000	-0.040317
12.012000	-0.034545
12.014000	-0.030279
12.016000	-0.026599
12.018000	-0.024173
12.020000	-0.024424
12.022000	-0.026850
12.024000	-0.032370
12.026000	-0.038811
12.028000	-0.045503
12.030000	-0.051609
12.032000	-0.056460
12.034000	-0.061395
12.036000	-0.065661
12.038000	-0.067501
12.040000	-0.067501
12.042000	-0.065912
12.044000	-0.062566
12.046000	-0.059220
12.048000	-0.054620
12.050000	-0.049769
12.052000	-0.045168
12.054000	-0.039731
12.056000	-0.034211
12.058000	-0.028439
12.060000	-0.024173
12.062000	-0.022584
12.064000	-0.023504
12.066000	-0.025679
12.068000	-0.027519
12.070000	-0.029359
12.072000	-0.031450
12.074000	-0.032705
12.076000	-0.033625
12.078000	-0.033291
12.080000	-0.032370
12.082000	-0.029610
12.084000	-0.027185
12.086000	-0.024759
12.088000	-0.023839
12.090000	-0.024759
12.092000	-0.026013
12.094000	-0.025344
12.096000	-0.024173
12.098000	-0.023839
12.100000	-0.024759
12.102000	-0.024759
12.104000	-0.026264
12.106000	-0.027185
12.108000	-0.027185
12.110000	-0.027770
12.112000	-0.029610
12.114000	-0.030530
12.116000	-0.030865
12.118000	-0.029359
12.120000	-0.025344
12.122000	-0.021664
12.124000	-0.020158
12.126000	-0.018318
12.128000	-0.018067
12.130000	-0.018653
12.132000	-0.021078
12.134000	-0.024759
12.136000	-0.029945
12.138000	-0.035716
12.140000	-0.041571
12.142000	-0.045503
12.144000	-0.047343
12.146000	-0.047928
12.148000	-0.047343
12.150000	-0.045837
12.152000	-0.042742
12.154000	-0.039397
12.156000	-0.034545
12.158000	-0.030279
12.160000	-0.026013
12.162000	-0.022333
12.164000	-0.019573
12.166000	-0.018318
12.168000	-0.018653
12.170000	-0.020493
12.172000	-0.021999
12.174000	-0.022584
12.176000	-0.022919
12.178000	-0.022919
12.180000	-0.023253
12.182000	-0.022584
12.184000	-0.020828
12.186000	-0.018987
12.188000	-0.016478
12.190000	-0.015558
12.192000	-0.014387
12.194000	-0.014052
12.196000	-0.014721
12.198000	-0.016227
12.200000	-0.018318
12.202000	-0.021078
12.204000	-0.023839
12.206000	-0.026264
12.208000	-0.027519
12.210000	-0.026850
12.212000	-0.024759
12.214000	-0.020493
12.216000	-0.014387
12.218000	-0.007695
12.220000	-0.001589
12.222000	0.005186
12.224000	0.011878
12.226000	0.018569
12.228000	0.023170
12.230000	0.027101
12.232000	0.030781
12.234000	0.033876
12.236000	0.035633
12.238000	0.035633
12.240000	0.033876
12.242000	0.028356
12.244000	0.021664
12.246000	0.013383
12.248000	0.004266
12.250000	-0.006441
12.252000	-0.017398
12.254000	-0.027185
12.256000	-0.034211
12.258000	-0.038477
12.260000	-0.039397
12.262000	-0.038811
12.264000	-0.037891
12.266000	-0.035131
12.268000	-0.032370
12.270000	-0.029025
12.272000	-0.027185
12.274000	-0.027185
12.276000	-0.028439
12.278000	-0.030279
12.280000	-0.033876
12.282000	-0.037306
12.284000	-0.039982
12.286000	-0.042157
12.288000	-0.043412
12.290000	-0.044583
12.292000	-0.044583
12.294000	-0.043997
12.296000	-0.042742
12.298000	-0.040651
12.300000	-0.036971
12.302000	-0.034545
12.304000	-0.032370
12.306000	-0.030865
12.308000	-0.031450
12.310000	-0.032370
12.312000	-0.031199
12.314000	-0.022584
12.316000	-0.001840
12.318000	0.035382
12.320000	0.088496
12.322000	0.152819
12.324000	0.224920
12.326000	0.298109
12.328000	0.366196
12.330000	0.419561
12.332000	0.450092
12.334000	0.451012
12.336000	0.418641
12.338000	0.355490
12.340000	0.266074
12.342000	0.156248
12.344000	0.035967
12.346000	-0.084230
12.348000	-0.191964
12.350000	-0.280795
12.352000	-0.345201
12.354000	-0.381838
12.356000	-0.389449
12.358000	-0.370797
12.360000	-0.331735
12.362000	-0.278620
12.364000	-0.220989
12.366000	-0.165115
12.368000	-0.115681
12.370000	-0.077539
12.372000	-0.050354
12.374000	-0.033291
12.376000	-0.023504
12.378000	-0.018987
12.380000	-0.019238
12.382000	-0.022333
12.384000	-0.025344
12.386000	-0.027519
12.388000	-0.027519
12.390000	-0.026264
12.392000	-0.022919
12.394000	-0.018067
12.396000	-0.012212
12.398000	-0.005855
12.400000	0.000251
12.402000	0.004517
12.404000	0.007612
12.406000	0.008783
12.408000	0.007863
12.410000	0.005437
12.412000	0.002426
12.414000	-0.001840
12.416000	-0.004935
12.418000	-0.006106
12.420000	-0.006106
12.422000	-0.003429
12.424000	0.001171
12.426000	0.006106
12.428000	0.009703
12.430000	0.012798
12.432000	0.014889
12.434000	0.015809
12.436000	0.014889
12.438000	0.013718
12.440000	0.011878
12.442000	0.010957
12.444000	0.009117
12.446000	0.008783
12.448000	0.009117
12.450000	0.010623
12.452000	0.012212
12.454000	0.014889
12.456000	0.017398
12.458000	0.020409
12.460000	0.023504
12.462000	0.028021
12.464000	0.033542
12.466000	0.039982
12.468000	0.046674
12.470000	0.054620
12.472000	0.061646
12.474000	0.069509
12.476000	0.077790
12.478000	0.086656
12.480000	0.095773
12.482000	0.105894
12.484000	0.116266
12.486000	0.128478
12.488000	0.141527
12.490000	0.153739
12.492000	0.163525
12.494000	0.169297
12.496000	0.170551
12.498000	0.165951
12.500000	0.154659
12.502000	0.137595
12.504000	0.115931
12.506000	0.090922
12.508000	0.064657
12.510000	0.039982
12.512000	0.016729
12.514000	-0.001255
12.516000	-0.015558
12.518000	-0.026599
12.520000	-0.035465
12.522000	-0.040651
12.524000	-0.044917
12.526000	-0.046423
12.528000	-0.047343
12.530000	-0.049434
12.532000	-0.051023
12.534000	-0.053114
12.536000	-0.056460
12.538000	-0.060140
12.540000	-0.064155
12.542000	-0.068087
12.544000	-0.071767
12.546000	-0.074193
12.548000	-0.076033
12.550000	-0.075113
12.552000	-0.072353
12.554000	-0.067752
12.556000	-0.061395
12.558000	-0.054955
12.560000	-0.047928
12.562000	-0.043412
12.564000	-0.039731
12.566000	-0.037306
12.568000	-0.037556
12.570000	-0.039397
12.572000	-0.043412
12.574000	-0.049183
12.576000	-0.054369
12.578000	-0.058635
12.580000	-0.061061
12.582000	-0.062901
12.584000	-0.063235
12.586000	-0.061061
12.588000	-0.057129
12.590000	-0.051943
12.592000	-0.045168
12.594000	-0.038811
12.596000	-0.032370
12.598000	-0.027185
12.600000	-0.023839
12.602000	-0.021999
12.604000	-0.020828
12.606000	-0.021664
12.608000	-0.025093
12.610000	-0.028690
12.612000	-0.034545
12.614000	-0.039731
12.616000	-0.043997
12.618000	-0.046757
12.620000	-0.046423
12.622000	-0.046423
12.624000	-0.043997
12.626000	-0.040902
12.628000	-0.035716
12.630000	-0.030865
12.632000	-0.026850
12.634000	-0.023504
12.636000	-0.021664
12.638000	-0.021078
12.640000	-0.021413
12.642000	-0.021078
12.644000	-0.021413
12.646000	-0.022919
12.648000	-0.023504
12.650000	-0.024173
12.652000	-0.024424
12.654000	-0.023504
12.656000	-0.022584
12.658000	-0.021999
12.660000	-0.021413
12.662000	-0.019238
12.664000	-0.015892
12.666000	-0.012881
12.668000	-0.010372
12.670000	-0.008615
12.672000	-0.006775
12.674000	-0.006441
12.676000	-0.005855
12.678000	-0.005855
12.680000	-0.007026
12.682000	-0.007695
12.684000	-0.008866
12.686000	-0.010707
12.688000	-0.011627
12.690000	-0.012547
12.692000	-0.013801
12.694000	-0.015892
12.696000	-0.018067
12.698000	-0.021664
12.700000	-0.024173
12.702000	-0.026013
12.704000	-0.026264
12.706000	-0.026264
12.708000	-0.024759
12.710000	-0.021413
12.712000	-0.018067
12.714000	-0.015307
12.716000	-0.013801
12.718000	-0.012212
12.720000	-0.010707
12.722000	-0.011041
12.724000	-0.012547
12.726000	-0.014052
12.728000	-0.014972
12.730000	-0.014972
12.732000	-0.014721
12.734000	-0.012212
12.736000	-0.009201
12.738000	-0.005186
12.740000	-0.001589
12.742000	0.001757
12.744000	0.004266
12.746000	0.006106
12.748000	0.006357
12.750000	0.005771
12.752000	0.004517
12.754000	0.003011
12.756000	0.001757
12.758000	0.002091
12.760000	0.000920
12.762000	-0.000669
12.764000	-0.001840
12.766000	-0.002509
12.768000	-0.001589
12.770000	0.000000
12.772000	0.001757
12.774000	0.003346
12.776000	0.004851
12.778000	0.008532
12.780000	0.012798
12.782000	0.017398
12.784000	0.021915
12.786000	0.026515
12.788000	0.031701
12.790000	0.037473
12.792000	0.042408
12.794000	0.046005
12.796000	0.047845
12.798000	0.045168
12.800000	0.040568
12.802000	0.032287
12.804000	0.020744
12.806000	0.006106
12.808000	-0.009786
12.810000	-0.024759
12.812000	-0.036971
12.814000	-0.045503
12.816000	-0.049434
12.818000	-0.047677
12.820000	-0.042742
12.822000	-0.035465
12.824000	-0.027770
12.826000	-0.021413
12.828000	-0.015892
12.830000	-0.010372
12.832000	-0.008281
12.834000	-0.010121
12.836000	-0.014387
12.838000	-0.019238
12.840000	-0.024759
12.842000	-0.029945
12.844000	-0.033291
12.846000	-0.035465
12.848000	-0.036636
12.850000	-0.037306
12.852000	-0.037891
12.854000	-0.035716
12.856000	-0.033876
12.858000	-0.032705
12.860000	-0.032705
12.862000	-0.033876
12.864000	-0.036636
12.866000	-0.039982
